corrn_curve_cubic
0.95535195
0.95571098
0.95606865
0.95642496
0.95677992
0.95713352
0.95748577
0.95783668
0.95818624
0.95853445
0.95888132
0.95922686
0.95957105
0.95991391
0.96025544
0.96059564
0.96093451
0.96127205
0.96160828
0.96194318
0.96227676
0.96260902
0.96293998
0.96326961
0.96359794
0.96392497
0.96425068
0.96457510
0.96489821
0.96522003
0.96554055
0.96585978
0.96617771
0.96649436
0.96680971
0.96712379
0.96743658
0.96774809
0.96805832
0.96836728
0.96867497
0.96898138
0.96928652
0.96959040
0.96989301
0.97019436
0.97049445
0.97079328
0.97109086
0.97138718
0.97168225
0.97197608
0.97226865
0.97255998
0.97285007
0.97313892
0.97342653
0.97371291
0.97399805
0.97428196
0.97456464
0.97484609
0.97512632
0.97540533
0.97568311
0.97595968
0.97623503
0.97650917
0.97678210
0.97705381
0.97732432
0.97759362
0.97786172
0.97812862
0.97839433
0.97865883
0.97892214
0.97918426
0.97944518
0.97970492
0.97996348
0.98022085
0.98047704
0.98073205
0.98098588
0.98123853
0.98149002
0.98174033
0.98198947
0.98223745
0.98248427
0.98272992
0.98297441
0.98321774
0.98345992
0.98370094
0.98394081
0.98417953
0.98441710
0.98465353
0.98488882
0.98512296
0.98535597
0.98558783
0.98581857
0.98604817
0.98627663
0.98650398
0.98673019
0.98695528
0.98717924
0.98740209
0.98762382
0.98784443
0.98806393
0.98828232
0.98849959
0.98871576
0.98893082
0.98914478
0.98935764
0.98956939
0.98978005
0.98998962
0.99019809
0.99040547
0.99061176
0.99081696
0.99102108
0.99122411
0.99142606
0.99162694
0.99182673
0.99202545
0.99222310
0.99241968
0.99261518
0.99280963
0.99300300
0.99319531
0.99338657
0.99357676
0.99376589
0.99395397
0.99414100
0.99432698
0.99451191
0.99469579
0.99487863
0.99506042
0.99524117
0.99542089
0.99559956
0.99577720
0.99595381
0.99612939
0.99630394
0.99647746
0.99664996
0.99682143
0.99699189
0.99716132
0.99732974
0.99749714
0.99766353
0.99782890
0.99799327
0.99815663
0.99831899
0.99848034
0.99864069
0.99880004
0.99895840
0.99911576
0.99927212
0.99942749
0.99958188
0.99973527
0.99988768
1.00003911
1.00018955
1.00033901
1.00048750
1.00063501
1.00078154
1.00092711
1.00107170
1.00121532
1.00135798
1.00149967
1.00164040
1.00178017
1.00191898
1.00205684
1.00219374
1.00232968
1.00246467
1.00259872
1.00273182
1.00286397
1.00299517
1.00312544
1.00325477
1.00338315
1.00351061
1.00363712
1.00376271
1.00388736
1.00401109
1.00413389
1.00425576
1.00437671
1.00449675
1.00461586
1.00473405
1.00485133
1.00496769
1.00508315
1.00519769
1.00531132
1.00542405
1.00553588
1.00564680
1.00575682
1.00586594
1.00597417
1.00608150
1.00618793
1.00629348
1.00639814
1.00650190
1.00660479
1.00670678
1.00680790
1.00690814
1.00700749
1.00710597
1.00720358
1.00730031
1.00739617
1.00749116
1.00758528
1.00767854
1.00777093
1.00786247
1.00795314
1.00804295
1.00813190
1.00822000
1.00830725
1.00839365
1.00847919
1.00856389
1.00864774
1.00873075
1.00881291
1.00889424
1.00897472
1.00905437
1.00913318
1.00921116
1.00928831
1.00936463
1.00944012
1.00951478
1.00958862
1.00966163
1.00973383
1.00980520
1.00987576
1.00994550
1.01001443
1.01008254
1.01014984
1.01021634
1.01028203
1.01034691
1.01041099
1.01047427
1.01053674
1.01059842
1.01065930
1.01071939
1.01077868
1.01083718
1.01089490
1.01095182
1.01100796
1.01106331
1.01111788
1.01117167
1.01122468
1.01127692
1.01132837
1.01137906
1.01142897
1.01147811
1.01152648
1.01157408
1.01162092
1.01166699
1.01171230
1.01175685
1.01180064
1.01184368
1.01188596
1.01192748
1.01196825
1.01200828
1.01204755
1.01208608
1.01212386
1.01216090
1.01219719
1.01223275
1.01226757
1.01230165
1.01233499
1.01236761
1.01239948
1.01243063
1.01246106
1.01249075
1.01251972
1.01254796
1.01257549
1.01260229
1.01262837
1.01265374
1.01267839
1.01270233
1.01272556
1.01274808
1.01276988
1.01279098
1.01281138
1.01283107
1.01285006
1.01286835
1.01288594
1.01290283
1.01291903
1.01293453
1.01294934
1.01296346
1.01297689
1.01298964
1.01300170
1.01301307
1.01302376
1.01303377
1.01304310
1.01305175
1.01305973
1.01306703
1.01307366
1.01307962
1.01308491
1.01308953
1.01309348
1.01309677
1.01309940
1.01310136
1.01310267
1.01310331
1.01310330
1.01310263
1.01310131
1.01309934
1.01309672
1.01309344
1.01308952
1.01308496
1.01307975
1.01307390
1.01306740
1.01306027
1.01305250
1.01304409
1.01303505
1.01302537
1.01301507
1.01300413
1.01299256
1.01298037
1.01296755
1.01295411
1.01294005
1.01292536
1.01291005
1.01289413
1.01287759
1.01286044
1.01284267
1.01282430
1.01280531
1.01278571
1.01276551
1.01274470
1.01272329
1.01270128
1.01267866
1.01265545
1.01263163
1.01260723
1.01258222
1.01255663
1.01253044
1.01250366
1.01247630
1.01244834
1.01241980
1.01239068
1.01236098
1.01233069
1.01229982
1.01226838
1.01223636
1.01220376
1.01217060
1.01213685
1.01210254
1.01206766
1.01203222
1.01199620
1.01195962
1.01192248
1.01188478
1.01184652
1.01180770
1.01176832
1.01172838
1.01168790
1.01164686
1.01160526
1.01156312
1.01152043
1.01147720
1.01143342
1.01138909
1.01134422
1.01129881
1.01125287
1.01120638
1.01115936
1.01111180
1.01106371
1.01101509
1.01096593
1.01091625
1.01086604
1.01081531
1.01076404
1.01071226
1.01065995
1.01060713
1.01055378
1.01049992
1.01044554
1.01039064
1.01033524
1.01027932
1.01022289
1.01016595
1.01010850
1.01005055
1.00999209
1.00993313
1.00987367
1.00981371
1.00975324
1.00969228
1.00963083
1.00956888
1.00950644
1.00944350
1.00938007
1.00931616
1.00925176
1.00918687
1.00912150
1.00905564
1.00898930
1.00892248
1.00885518
1.00878740
1.00871915
1.00865042
1.00858122
1.00851155
1.00844140
1.00837079
1.00829970
1.00822816
1.00815614
1.00808366
1.00801072
1.00793732
1.00786346
1.00778914
1.00771436
1.00763913
1.00756344
1.00748730
1.00741071
1.00733366
1.00725617
1.00717824
1.00709985
1.00702102
1.00694175
1.00686203
1.00678188
1.00670129
1.00662025
1.00653878
1.00645688
1.00637454
1.00629177
1.00620857
1.00612494
1.00604088
1.00595639
1.00587148
1.00578614
1.00570038
1.00561420
1.00552760
1.00544058
1.00535314
1.00526528
1.00517701
1.00508832
1.00499923
1.00490972
1.00481980
1.00472947
1.00463874
1.00454760
1.00445606
1.00436411
1.00427176
1.00417901
1.00408586
1.00399232
1.00389837
1.00380403
1.00370930
1.00361417
1.00351866
1.00342275
1.00332646
1.00322977
1.00313270
1.00303525
1.00293741
1.00283919
1.00274059
1.00264161
1.00254225
1.00244251
1.00234240
1.00224191
1.00214105
1.00203982
1.00193822
1.00183625
1.00173390
1.00163120
1.00152812
1.00142469
1.00132089
1.00121673
1.00111220
1.00100732
1.00090208
1.00079648
1.00069053
1.00058423
1.00047757
1.00037056
1.00026320
1.00015549
1.00004743
0.99993902
0.99983027
0.99972118
0.99961174
0.99950196
0.99939185
0.99928139
0.99917059
0.99905946
0.99894799
0.99883619
0.99872406
0.99861159
0.99849879
0.99838567
0.99827221
0.99815843
0.99804433
0.99792990
0.99781514
0.99770007
0.99758467
0.99746896
0.99735292
0.99723657
0.99711991
0.99700293
0.99688564
0.99676803
0.99665011
0.99653189
0.99641336
0.99629451
0.99617537
0.99605592
0.99593616
0.99581610
0.99569574
0.99557509
0.99545413
0.99533287
0.99521132
0.99508948
0.99496734
0.99484491
0.99472218
0.99459917
0.99447586
0.99435227
0.99422839
0.99410423
0.99397978
0.99385505
0.99373004
0.99360474
0.99347917
0.99335332
0.99322719
0.99310079
0.99297410
0.99284715
0.99271992
0.99259243
0.99246466
0.99233662
0.99220832
0.99207975
0.99195091
0.99182181
0.99169244
0.99156282
0.99143293
0.99130278
0.99117238
0.99104171
0.99091079
0.99077962
0.99064819
0.99051651
0.99038458
0.99025239
0.99011996
0.98998728
0.98985435
0.98972118
0.98958776
0.98945410
0.98932019
0.98918605
0.98905166
0.98891703
0.98878217
0.98864707
0.98851174
0.98837617
0.98824036
0.98810433
0.98796806
0.98783156
0.98769484
0.98755789
0.98742071
0.98728330
0.98714567
0.98700782
0.98686974
0.98673145
0.98659293
0.98645420
0.98631524
0.98617607
0.98603669
0.98589709
0.98575728
0.98561725
0.98547702
0.98533657
0.98519592
0.98505506
0.98491399
0.98477272
0.98463124
0.98448956
0.98434767
0.98420559
0.98406330
0.98392082
0.98377814
0.98363526
0.98349218
0.98334892
0.98320545
0.98306180
0.98291795
0.98277392
0.98262969
0.98248528
0.98234068
0.98219589
0.98205092
0.98190577
0.98176043
0.98161491
0.98146921
0.98132333
0.98117727
0.98103104
0.98088463
0.98073804
0.98059128
0.98044435
0.98029724
0.98014996
0.98000252
0.97985490
0.97970712
0.97955917
0.97941105
0.97926277
0.97911433
0.97896572
0.97881696
0.97866803
0.97851894
0.97836970
0.97822029
0.97807074
0.97792102
0.97777115
0.97762113
0.97747096
0.97732063
0.97717016
0.97701954
0.97686876
0.97671785
0.97656678
0.97641557
0.97626422
0.97611273
0.97596109
0.97580931
0.97565739
0.97550534
0.97535314
0.97520081
0.97504835
0.97489575
0.97474302
0.97459015
0.97443715
0.97428402
0.97413077
0.97397738
0.97382387
0.97367023
0.97351646
0.97336257
0.97320856
0.97305442
0.97290017
0.97274579
0.97259129
0.97243668
0.97228194
0.97212710
0.97197213
0.97181705
0.97166186
0.97150656
0.97135114
0.97119562
0.97103998
0.97088424
0.97072838
0.97057243
0.97041636
0.97026020
0.97010393
0.96994755
0.96979108
0.96963450
0.96947783
0.96932105
0.96916418
0.96900721
0.96885015
0.96869299
0.96853574
0.96837839
0.96822096
0.96806343
0.96790581
0.96774811
0.96759032
0.96743243
0.96727447
0.96711642
0.96695828
0.96680006
0.96664176
0.96648338
0.96632492
0.96616638
0.96600776
0.96584906
0.96569029
0.96553144
0.96537252
0.96521352
0.96505445
0.96489531
0.96473610
0.96457682
0.96441747
0.96425806
0.96409857
0.96393902
0.96377941
0.96361973
0.96345999
0.96330018
0.96314032
0.96298039
0.96282041
0.96266036
0.96250026
0.96234011
0.96217989
0.96201963
0.96185931
0.96169893
0.96153850
0.96137803
0.96121750
0.96105692
0.96089630
0.96073563
0.96057491
0.96041415
0.96025334
0.96009249
0.95993159
0.95977066
0.95960968
0.95944866
0.95928761
0.95912651
0.95896538
0.95880421
0.95864301
0.95848177
0.95832050
0.95815920
0.95799786
0.95783650
0.95767510
0.95751367
0.95735222
0.95719074
0.95702923
0.95686770
0.95670614
0.95654456
0.95638296
0.95622133
0.95605968
0.95589802
0.95573633
0.95557463
0.95541290
0.95525117
0.95508941
0.95492764
0.95476586
0.95460406
0.95444226
0.95428044
0.95411861
0.95395677
0.95379492
0.95363306
0.95347120
0.95330933
0.95314746
0.95298558
0.95282370
0.95266181
0.95249993
0.95233804
0.95217615
0.95201427
0.95185238
0.95169050
0.95152862
0.95136675
0.95120488
0.95104302
0.95088116
0.95071932
0.95055748
0.95039565
0.95023383
0.95007202
0.94991023
0.94974844
0.94958668
0.94942492
0.94926318
0.94910146
0.94893976
0.94877807
0.94861640
0.94845475
0.94829312
0.94813152
0.94796993
0.94780837
0.94764683
0.94748532
0.94732383
0.94716237
0.94700094
0.94683954
0.94667816
0.94651681
0.94635550
0.94619421
0.94603296
0.94587174
0.94571056
0.94554941
0.94538829
0.94522721
0.94506617
0.94490517
0.94474420
0.94458328
0.94442239
0.94426155
0.94410075
0.94393999
0.94377928
0.94361861
0.94345798
0.94329741
0.94313688
0.94297639
0.94281596
0.94265557
0.94249524
0.94233495
0.94217472
0.94201454
0.94185442
0.94169435
0.94153433
0.94137437
0.94121447
0.94105462
0.94089483
0.94073510
0.94057543
0.94041583
0.94025628
0.94009679
0.93993737
0.93977801
0.93961872
0.93945949
0.93930033
0.93914124
0.93898221
0.93882325
0.93866437
0.93850555
0.93834680
0.93818812
0.93802952
0.93787099
0.93771253
0.93755415
0.93739585
0.93723762
0.93707947
0.93692139
0.93676340
0.93660548
0.93644765
0.93628989
0.93613222
0.93597463
0.93581712
0.93565970
0.93550236
0.93534511
0.93518794
0.93503087
0.93487387
0.93471697
0.93456016
0.93440344
0.93424681
0.93409027
0.93393382
0.93377747
0.93362121
0.93346504
0.93330897
0.93315300
0.93299713
0.93284135
0.93268567
0.93253009
0.93237461
0.93221923
0.93206395
0.93190877
0.93175370
0.93159873
0.93144387
0.93128911
0.93113446
0.93097991
0.93082547
0.93067114
0.93051692
0.93036281
0.93020881
0.93005492
0.92990114
0.92974747
0.92959392
0.92944048
0.92928716
0.92913395
0.92898086
0.92882789
0.92867503
0.92852229
0.92836967
0.92821717
0.92806480
0.92791254
0.92776040
0.92760839
0.92745650
0.92730474
0.92715310
0.92700159
0.92685020
0.92669894
0.92654781
0.92639680
0.92624593
0.92609519
0.92594457
0.92579409
0.92564374
0.92549352
0.92534344
0.92519349
0.92504368
0.92489400
0.92474446
0.92459505
0.92444579
0.92429666
0.92414767
0.92399882
0.92385011
0.92370154
0.92355312
0.92340483
0.92325669
0.92310870
0.92296085
0.92281314
0.92266558
0.92251817
0.92237091
0.92222379
0.92207683
0.92193001
0.92178334
0.92163682
0.92149046
0.92134425
0.92119819
0.92105228
0.92090653
0.92076094
0.92061550
0.92047021
0.92032509
0.92018012
0.92003531
0.91989066
0.91974617
0.91960184
0.91945767
0.91931366
0.91916982
0.91902614
0.91888262
0.91873927
0.91859608
0.91845306
0.91831021
0.91816752
0.91802500
0.91788265
0.91774047
0.91759845
0.91745661
0.91731494
0.91717345
0.91703212
0.91689097
0.91674999
0.91660919
0.91646856
0.91632811
0.91618783
0.91604773
0.91590781
0.91576807
0.91562851
0.91548913
0.91534992
0.91521090
0.91507206
0.91493341
0.91479493
0.91465664
0.91451854
0.91438062
0.91424288
0.91410533
0.91396797
0.91383080
0.91369381
0.91355701
0.91342040
0.91328399
0.91314776
0.91301173
0.91287588
0.91274023
0.91260478
0.91246951
0.91233444
0.91219957
0.91206489
0.91193041
0.91179613
0.91166204
0.91152816
0.91139447
0.91126098
0.91112769
0.91099461
0.91086172
0.91072904
0.91059656
0.91046428
0.91033221
0.91020034
0.91006867
0.90993722
0.90980597
0.90967492
0.90954409
0.90941346
0.90928304
0.90915283
0.90902284
0.90889305
0.90876347
0.90863411
0.90850496
0.90837602
0.90824730
0.90811879
0.90799049
0.90786241
0.90773455
0.90760691
0.90747948
0.90735227
0.90722528
0.90709851
0.90697196
0.90684563
0.90671952
0.90659363
0.90646797
0.90634252
0.90621731
0.90609231
0.90596754
0.90584300
0.90571868
0.90559459
0.90547072
0.90534709
0.90522368
0.90510050
0.90497755
0.90485483
0.90473234
0.90461009
0.90448806
0.90436627
0.90424471
0.90412338
0.90400229
0.90388143
0.90376081
0.90364043
0.90352028
0.90340037
0.90328069
0.90316126
0.90304206
0.90292310
0.90280439
0.90268591
0.90256767
0.90244968
0.90233193
0.90221442
0.90209716
0.90198014
0.90186336
0.90174683
0.90163055
0.90151451
0.90139872
0.90128317
0.90116788
0.90105283
0.90093803
0.90082348
0.90070919
0.90059514
0.90048134
0.90036780
0.90025451
0.90014147
0.90002869
0.89991616
0.89980389
0.89969187
0.89958010
0.89946860
0.89935735
0.89924636
0.89913562
0.89902515
0.89891493
0.89880498
0.89869528
0.89858585
0.89847668
0.89836777
0.89825912
0.89815073
0.89804261
0.89793475
0.89782716
0.89771984
0.89761278
0.89750598
0.89739945
0.89729319
0.89718720
0.89708148
0.89697603
0.89687084
0.89676593
0.89666129
0.89655691
0.89645281
0.89634899
0.89624543
0.89614215
0.89603914
0.89593641
0.89583396
0.89573177
0.89562987
0.89552824
0.89542689
0.89532581
0.89522502
0.89512450
0.89502426
0.89492431
0.89482463
0.89472523
0.89462612
0.89452728
0.89442873
0.89433047
0.89423248
0.89413478
0.89403737
0.89394024
0.89384339
0.89374683
0.89365056
0.89355458
0.89345888
0.89336347
0.89326835
0.89317352
0.89307898
0.89298473
0.89289077
0.89279710
0.89270372
0.89261064
0.89251785
0.89242535
0.89233314
0.89224123
0.89214962
0.89205830
0.89196727
0.89187654
0.89178611
0.89169598
0.89160615
0.89151661
0.89142737
0.89133843
0.89124979
0.89116145
0.89107342
0.89098568
0.89089825
0.89081111
0.89072428
0.89063776
0.89055154
0.89046562
0.89038001
0.89029470
0.89020970
0.89012501
0.89004062
0.88995654
0.88987276
0.88978930
0.88970615
0.88962330
0.88954076
0.88945854
0.88937662
0.88929502
0.88921373
0.88913275
0.88905208
0.88897173
0.88889168
0.88881196
0.88873255
0.88865345
0.88857467
0.88849621
0.88841806
0.88834023
0.88826271
0.88818552
0.88810864
0.88803208
0.88795585
0.88787993
0.88780433
0.88772905
0.88765410
0.88757946
0.88750515
0.88743116
0.88735750
0.88728415
0.88721114
0.88713844
0.88706608
0.88699403
0.88692232
0.88685093
0.88677987
0.88670913
0.88663872
0.88656864
0.88649889
0.88642947
0.88636038
0.88629162
0.88622319
0.88615509
0.88608732
0.88601989
0.88595279
0.88588602
0.88581958
0.88575348
0.88568771
0.88562228
0.88555718
0.88549242
0.88542799
0.88536390
0.88530015
0.88523673
0.88517366
0.88511092
0.88504852
0.88498646
0.88492474
0.88486336
0.88480232
0.88474162
0.88468126
0.88462125
0.88456158
0.88450225
0.88444326
0.88438462
0.88432632
0.88426837
0.88421076
0.88415350
0.88409658
0.88404001
0.88398379
0.88392791
0.88387238
0.88381720
0.88376237
0.88370789
0.88365376
0.88359998
0.88354654
0.88349346
0.88344073
0.88338835
0.88333633
0.88328465
0.88323333
0.88318236
0.88313175
0.88308149
0.88303159
0.88298204
0.88293284
0.88288401
0.88283552
0.88278740
0.88273963
0.88269222
0.88264517
0.88259848
0.88255214
0.88250617
0.88246055
0.88241530
0.88237041
0.88232587
0.88228170
0.88223789
0.88219444
0.88215136
0.88210864
0.88206628
0.88202429
0.88198266
0.88194139
0.88190049
0.88185996
0.88181979
0.88177999
0.88174056
0.88170149
0.88166279
0.88162446
0.88158650
0.88154890
0.88151168
0.88147483
0.88143834
0.88140223
0.88136648
0.88133111
0.88129611
0.88126149
0.88122723
0.88119335
0.88115984
0.88112671
0.88109395
0.88106156
0.88102955
0.88099791
0.88096665
0.88093577
0.88090526
0.88087513
0.88084538
0.88081601
0.88078701
0.88075839
0.88073015
0.88070230
0.88067482
0.88064772
0.88062100
0.88059466
0.88056870
0.88054313
0.88051794
0.88049313
0.88046870
0.88044465
0.88042099
0.88039772
0.88037483
0.88035232
0.88033020
0.88030846
0.88028711
0.88026615
0.88024557
0.88022538
0.88020558
0.88018617
0.88016714
0.88014850
0.88013026
0.88011240
0.88009493
0.88007785
0.88006116
0.88004487
0.88002896
0.88001345
0.87999832
0.87998360
0.87996926
0.87995532
0.87994177
0.87992861
0.87991585
0.87990348
0.87989151
0.87987994
0.87986876
0.87985797
0.87984759
0.87983760
0.87982800
0.87981881
0.87981001
0.87980161
0.87979361
0.87978601
0.87977881
0.87977201
0.87976561
0.87975961
0.87975401
0.87974881
0.87974401
0.87973962
