corrn_curve_linear
1.09876308
1.09858338
1.09840371
1.09822409
1.09804450
1.09786495
1.09768543
1.09750596
1.09732652
1.09714712
1.09696776
1.09678844
1.09660915
1.09642990
1.09625069
1.09607152
1.09589238
1.09571329
1.09553423
1.09535521
1.09517622
1.09499728
1.09481837
1.09463950
1.09446067
1.09428187
1.09410311
1.09392439
1.09374571
1.09356707
1.09338846
1.09320989
1.09303136
1.09285286
1.09267441
1.09249599
1.09231761
1.09213926
1.09196096
1.09178269
1.09160446
1.09142626
1.09124811
1.09106999
1.09089191
1.09071386
1.09053586
1.09035789
1.09017996
1.09000206
1.08982420
1.08964639
1.08946860
1.08929086
1.08911315
1.08893548
1.08875785
1.08858025
1.08840270
1.08822517
1.08804769
1.08787024
1.08769284
1.08751546
1.08733813
1.08716083
1.08698357
1.08680635
1.08662916
1.08645202
1.08627490
1.08609783
1.08592079
1.08574379
1.08556683
1.08538990
1.08521302
1.08503616
1.08485935
1.08468257
1.08450583
1.08432913
1.08415246
1.08397583
1.08379924
1.08362269
1.08344617
1.08326969
1.08309324
1.08291684
1.08274046
1.08256413
1.08238783
1.08221157
1.08203535
1.08185917
1.08168302
1.08150690
1.08133083
1.08115479
1.08097879
1.08080282
1.08062690
1.08045101
1.08027515
1.08009933
1.07992355
1.07974781
1.07957210
1.07939643
1.07922080
1.07904520
1.07886964
1.07869411
1.07851863
1.07834318
1.07816776
1.07799238
1.07781704
1.07764174
1.07746647
1.07729124
1.07711605
1.07694089
1.07676577
1.07659068
1.07641563
1.07624062
1.07606565
1.07589071
1.07571581
1.07554094
1.07536611
1.07519132
1.07501656
1.07484184
1.07466716
1.07449251
1.07431790
1.07414332
1.07396879
1.07379428
1.07361982
1.07344539
1.07327100
1.07309664
1.07292232
1.07274804
1.07257379
1.07239958
1.07222540
1.07205127
1.07187716
1.07170310
1.07152907
1.07135507
1.07118112
1.07100719
1.07083331
1.07065946
1.07048565
1.07031187
1.07013813
1.06996442
1.06979076
1.06961712
1.06944353
1.06926997
1.06909644
1.06892296
1.06874950
1.06857609
1.06840271
1.06822936
1.06805606
1.06788278
1.06770955
1.06753635
1.06736318
1.06719005
1.06701696
1.06684391
1.06667089
1.06649790
1.06632495
1.06615204
1.06597916
1.06580632
1.06563352
1.06546075
1.06528801
1.06511532
1.06494265
1.06477003
1.06459744
1.06442488
1.06425236
1.06407988
1.06390743
1.06373502
1.06356265
1.06339031
1.06321800
1.06304573
1.06287350
1.06270130
1.06252914
1.06235701
1.06218492
1.06201287
1.06184085
1.06166886
1.06149692
1.06132500
1.06115313
1.06098128
1.06080948
1.06063771
1.06046597
1.06029427
1.06012261
1.05995098
1.05977939
1.05960783
1.05943631
1.05926482
1.05909337
1.05892195
1.05875057
1.05857923
1.05840792
1.05823664
1.05806541
1.05789420
1.05772303
1.05755190
1.05738080
1.05720974
1.05703871
1.05686772
1.05669677
1.05652585
1.05635496
1.05618411
1.05601329
1.05584251
1.05567177
1.05550106
1.05533038
1.05515974
1.05498914
1.05481857
1.05464804
1.05447754
1.05430708
1.05413665
1.05396625
1.05379590
1.05362557
1.05345528
1.05328503
1.05311481
1.05294463
1.05277448
1.05260437
1.05243429
1.05226425
1.05209424
1.05192427
1.05175433
1.05158443
1.05141456
1.05124473
1.05107493
1.05090516
1.05073544
1.05056574
1.05039608
1.05022646
1.05005687
1.04988732
1.04971780
1.04954831
1.04937886
1.04920945
1.04904007
1.04887072
1.04870141
1.04853214
1.04836290
1.04819369
1.04802452
1.04785538
1.04768628
1.04751722
1.04734818
1.04717919
1.04701022
1.04684129
1.04667240
1.04650354
1.04633472
1.04616593
1.04599717
1.04582845
1.04565976
1.04549111
1.04532250
1.04515391
1.04498537
1.04481685
1.04464837
1.04447993
1.04431152
1.04414315
1.04397480
1.04380650
1.04363823
1.04346999
1.04330179
1.04313362
1.04296548
1.04279738
1.04262932
1.04246129
1.04229329
1.04212533
1.04195740
1.04178951
1.04162165
1.04145383
1.04128604
1.04111828
1.04095056
1.04078287
1.04061522
1.04044760
1.04028001
1.04011246
1.03994495
1.03977747
1.03961002
1.03944260
1.03927523
1.03910788
1.03894057
1.03877329
1.03860605
1.03843884
1.03827167
1.03810453
1.03793742
1.03777035
1.03760331
1.03743631
1.03726934
1.03710240
1.03693550
1.03676863
1.03660180
1.03643500
1.03626824
1.03610150
1.03593481
1.03576814
1.03560151
1.03543492
1.03526836
1.03510183
1.03493534
1.03476888
1.03460245
1.03443606
1.03426970
1.03410338
1.03393709
1.03377083
1.03360461
1.03343842
1.03327226
1.03310614
1.03294005
1.03277400
1.03260798
1.03244200
1.03227604
1.03211013
1.03194424
1.03177839
1.03161257
1.03144679
1.03128104
1.03111532
1.03094964
1.03078399
1.03061838
1.03045280
1.03028725
1.03012173
1.02995625
1.02979081
1.02962539
1.02946001
1.02929467
1.02912936
1.02896408
1.02879883
1.02863362
1.02846844
1.02830330
1.02813819
1.02797311
1.02780806
1.02764305
1.02747808
1.02731313
1.02714822
1.02698335
1.02681850
1.02665369
1.02648892
1.02632417
1.02615946
1.02599479
1.02583014
1.02566553
1.02550096
1.02533642
1.02517191
1.02500743
1.02484299
1.02467858
1.02451420
1.02434986
1.02418555
1.02402127
1.02385703
1.02369282
1.02352864
1.02336450
1.02320039
1.02303631
1.02287227
1.02270826
1.02254428
1.02238034
1.02221642
1.02205255
1.02188870
1.02172489
1.02156111
1.02139737
1.02123365
1.02106997
1.02090633
1.02074272
1.02057914
1.02041559
1.02025207
1.02008859
1.01992515
1.01976173
1.01959835
1.01943500
1.01927168
1.01910840
1.01894515
1.01878193
1.01861875
1.01845560
1.01829248
1.01812940
1.01796634
1.01780332
1.01764034
1.01747738
1.01731446
1.01715158
1.01698872
1.01682590
1.01666311
1.01650035
1.01633763
1.01617494
1.01601228
1.01584965
1.01568706
1.01552450
1.01536197
1.01519948
1.01503702
1.01487459
1.01471219
1.01454983
1.01438750
1.01422520
1.01406293
1.01390070
1.01373850
1.01357633
1.01341420
1.01325210
1.01309003
1.01292799
1.01276599
1.01260401
1.01244207
1.01228017
1.01211829
1.01195645
1.01179464
1.01163287
1.01147112
1.01130941
1.01114773
1.01098608
1.01082447
1.01066289
1.01050134
1.01033982
1.01017834
1.01001689
1.00985547
1.00969408
1.00953273
1.00937140
1.00921011
1.00904886
1.00888763
1.00872644
1.00856528
1.00840415
1.00824305
1.00808199
1.00792096
1.00775996
1.00759899
1.00743806
1.00727716
1.00711629
1.00695545
1.00679465
1.00663387
1.00647313
1.00631242
1.00615175
1.00599110
1.00583049
1.00566991
1.00550936
1.00534885
1.00518837
1.00502791
1.00486750
1.00470711
1.00454675
1.00438643
1.00422614
1.00406588
1.00390566
1.00374546
1.00358530
1.00342517
1.00326507
1.00310500
1.00294497
1.00278497
1.00262500
1.00246506
1.00230515
1.00214528
1.00198544
1.00182563
1.00166585
1.00150610
1.00134639
1.00118670
1.00102705
1.00086743
1.00070785
1.00054829
1.00038877
1.00022928
1.00006982
0.99991039
0.99975099
0.99959163
0.99943230
0.99927300
0.99911373
0.99895449
0.99879529
0.99863611
0.99847697
0.99831786
0.99815878
0.99799974
0.99784072
0.99768174
0.99752279
0.99736387
0.99720498
0.99704613
0.99688730
0.99672851
0.99656975
0.99641102
0.99625232
0.99609365
0.99593502
0.99577641
0.99561784
0.99545930
0.99530079
0.99514232
0.99498387
0.99482546
0.99466708
0.99450872
0.99435041
0.99419212
0.99403386
0.99387564
0.99371744
0.99355928
0.99340115
0.99324305
0.99308498
0.99292695
0.99276894
0.99261097
0.99245303
0.99229512
0.99213724
0.99197939
0.99182158
0.99166379
0.99150604
0.99134831
0.99119062
0.99103296
0.99087534
0.99071774
0.99056017
0.99040264
0.99024513
0.99008766
0.98993022
0.98977281
0.98961543
0.98945809
0.98930077
0.98914349
0.98898623
0.98882901
0.98867182
0.98851466
0.98835753
0.98820043
0.98804337
0.98788633
0.98772933
0.98757236
0.98741541
0.98725850
0.98710162
0.98694478
0.98678796
0.98663117
0.98647442
0.98631769
0.98616100
0.98600434
0.98584771
0.98569111
0.98553454
0.98537800
0.98522149
0.98506501
0.98490857
0.98475215
0.98459577
0.98443942
0.98428310
0.98412681
0.98397055
0.98381432
0.98365812
0.98350195
0.98334582
0.98318971
0.98303364
0.98287759
0.98272158
0.98256560
0.98240965
0.98225373
0.98209784
0.98194198
0.98178615
0.98163036
0.98147459
0.98131885
0.98116315
0.98100747
0.98085183
0.98069622
0.98054064
0.98038509
0.98022956
0.98007408
0.97991862
0.97976319
0.97960779
0.97945242
0.97929709
0.97914178
0.97898651
0.97883126
0.97867605
0.97852086
0.97836571
0.97821059
0.97805550
0.97790044
0.97774540
0.97759040
0.97743544
0.97728050
0.97712559
0.97697071
0.97681586
0.97666105
0.97650626
0.97635150
0.97619678
0.97604208
0.97588742
0.97573278
0.97557818
0.97542361
0.97526906
0.97511455
0.97496007
0.97480562
0.97465120
0.97449681
0.97434245
0.97418812
0.97403382
0.97387955
0.97372531
0.97357110
0.97341692
0.97326277
0.97310865
0.97295457
0.97280051
0.97264648
0.97249248
0.97233852
0.97218458
0.97203067
0.97187680
0.97172295
0.97156914
0.97141535
0.97126160
0.97110787
0.97095418
0.97080051
0.97064688
0.97049327
0.97033970
0.97018616
0.97003264
0.96987916
0.96972570
0.96957228
0.96941889
0.96926552
0.96911219
0.96895889
0.96880561
0.96865237
0.96849916
0.96834597
0.96819282
0.96803970
0.96788660
0.96773354
0.96758051
0.96742750
0.96727453
0.96712159
0.96696867
0.96681579
0.96666294
0.96651011
0.96635732
0.96620455
0.96605182
0.96589912
0.96574644
0.96559380
0.96544118
0.96528860
0.96513604
0.96498352
0.96483102
0.96467856
0.96452612
0.96437372
0.96422134
0.96406900
0.96391668
0.96376439
0.96361214
0.96345991
0.96330771
0.96315554
0.96300341
0.96285130
0.96269922
0.96254717
0.96239515
0.96224316
0.96209120
0.96193927
0.96178737
0.96163550
0.96148366
0.96133185
0.96118007
0.96102831
0.96087659
0.96072490
0.96057323
0.96042160
0.96027000
0.96011842
0.95996688
0.95981536
0.95966387
0.95951242
0.95936099
0.95920959
0.95905823
0.95890689
0.95875558
0.95860430
0.95845305
0.95830183
0.95815064
0.95799947
0.95784834
0.95769724
0.95754617
0.95739512
0.95724411
0.95709312
0.95694216
0.95679124
0.95664034
0.95648947
0.95633863
0.95618783
0.95603705
0.95588630
0.95573557
0.95558488
0.95543422
0.95528359
0.95513298
0.95498241
0.95483186
0.95468135
0.95453086
0.95438040
0.95422997
0.95407957
0.95392920
0.95377886
0.95362855
0.95347827
0.95332802
0.95317779
0.95302760
0.95287743
0.95272729
0.95257719
0.95242711
0.95227706
0.95212704
0.95197705
0.95182709
0.95167715
0.95152725
0.95137737
0.95122753
0.95107771
0.95092792
0.95077817
0.95062844
0.95047874
0.95032907
0.95017942
0.95002981
0.94988023
0.94973067
0.94958114
0.94943165
0.94928218
0.94913274
0.94898333
0.94883395
0.94868459
0.94853527
0.94838597
0.94823671
0.94808747
0.94793826
0.94778908
0.94763993
0.94749081
0.94734172
0.94719266
0.94704362
0.94689461
0.94674564
0.94659669
0.94644777
0.94629888
0.94615002
0.94600118
0.94585238
0.94570360
0.94555485
0.94540614
0.94525745
0.94510879
0.94496015
0.94481155
0.94466298
0.94451443
0.94436591
0.94421742
0.94406896
0.94392053
0.94377213
0.94362375
0.94347541
0.94332709
0.94317880
0.94303055
0.94288231
0.94273411
0.94258594
0.94243779
0.94228968
0.94214159
0.94199353
0.94184550
0.94169750
0.94154952
0.94140158
0.94125366
0.94110577
0.94095791
0.94081008
0.94066228
0.94051450
0.94036676
0.94021904
0.94007135
0.93992369
0.93977606
0.93962846
0.93948088
0.93933333
0.93918582
0.93903833
0.93889086
0.93874343
0.93859603
0.93844865
0.93830130
0.93815398
0.93800669
0.93785943
0.93771219
0.93756499
0.93741781
0.93727066
0.93712354
0.93697644
0.93682938
0.93668234
0.93653533
0.93638835
0.93624140
0.93609448
0.93594758
0.93580072
0.93565388
0.93550707
0.93536028
0.93521353
0.93506680
0.93492011
0.93477344
0.93462679
0.93448018
0.93433359
0.93418704
0.93404051
0.93389401
0.93374753
0.93360109
0.93345467
0.93330828
0.93316192
0.93301559
0.93286929
0.93272301
0.93257676
0.93243054
0.93228435
0.93213819
0.93199205
0.93184594
0.93169986
0.93155381
0.93140779
0.93126179
0.93111582
0.93096988
0.93082397
0.93067808
0.93053223
0.93038640
0.93024060
0.93009483
0.92994908
0.92980336
0.92965768
0.92951201
0.92936638
0.92922078
0.92907520
0.92892965
0.92878413
0.92863863
0.92849317
0.92834773
0.92820232
0.92805694
0.92791158
0.92776625
0.92762096
0.92747568
0.92733044
0.92718522
0.92704004
0.92689488
0.92674974
0.92660464
0.92645956
0.92631451
0.92616949
0.92602449
0.92587953
0.92573459
0.92558968
0.92544480
0.92529994
0.92515511
0.92501031
0.92486554
0.92472079
0.92457608
0.92443139
0.92428672
0.92414209
0.92399748
0.92385290
0.92370835
0.92356382
0.92341933
0.92327486
0.92313042
0.92298600
0.92284162
0.92269726
0.92255292
0.92240862
0.92226434
0.92212009
0.92197587
0.92183168
0.92168751
0.92154337
0.92139926
0.92125518
0.92111112
0.92096709
0.92082309
0.92067911
0.92053516
0.92039124
0.92024735
0.92010349
0.91995965
0.91981584
0.91967206
0.91952830
0.91938457
0.91924087
0.91909720
0.91895355
0.91880993
0.91866634
0.91852277
0.91837924
0.91823573
0.91809224
0.91794879
0.91780536
0.91766196
0.91751859
0.91737524
0.91723192
0.91708863
0.91694536
0.91680213
0.91665892
0.91651573
0.91637258
0.91622945
0.91608635
0.91594327
0.91580023
0.91565721
0.91551421
0.91537125
0.91522831
0.91508540
0.91494251
0.91479965
0.91465682
0.91451402
0.91437124
0.91422850
0.91408577
0.91394308
0.91380041
0.91365777
0.91351516
0.91337257
0.91323001
0.91308748
0.91294497
0.91280249
0.91266004
0.91251762
0.91237522
0.91223285
0.91209050
0.91194819
0.91180590
0.91166363
0.91152140
0.91137919
0.91123700
0.91109485
0.91095272
0.91081062
0.91066854
0.91052650
0.91038448
0.91024248
0.91010051
0.90995857
0.90981666
0.90967477
0.90953291
0.90939108
0.90924927
0.90910749
0.90896574
0.90882402
0.90868232
0.90854064
0.90839900
0.90825738
0.90811579
0.90797422
0.90783268
0.90769117
0.90754969
0.90740823
0.90726680
0.90712539
0.90698401
0.90684266
0.90670134
0.90656004
0.90641877
0.90627752
0.90613630
0.90599511
0.90585395
0.90571281
0.90557170
0.90543061
0.90528955
0.90514852
0.90500751
0.90486654
0.90472558
0.90458466
0.90444376
0.90430289
0.90416204
0.90402122
0.90388043
0.90373966
0.90359892
0.90345821
0.90331752
0.90317686
0.90303623
0.90289562
0.90275504
0.90261448
0.90247395
0.90233345
0.90219298
0.90205253
0.90191211
0.90177171
0.90163134
0.90149100
0.90135068
0.90121039
0.90107013
0.90092989
0.90078968
0.90064949
0.90050933
0.90036920
0.90022910
0.90008902
0.89994896
0.89980894
0.89966894
0.89952896
0.89938901
0.89924909
0.89910920
0.89896933
0.89882948
0.89868967
0.89854988
0.89841011
0.89827038
0.89813066
0.89799098
0.89785132
0.89771169
0.89757208
0.89743250
0.89729295
0.89715342
0.89701391
0.89687444
0.89673499
0.89659557
0.89645617
0.89631680
0.89617745
0.89603813
0.89589884
0.89575957
0.89562033
0.89548112
0.89534193
0.89520277
0.89506363
0.89492452
0.89478544
0.89464638
0.89450735
0.89436834
0.89422936
0.89409041
0.89395148
0.89381258
0.89367370
0.89353485
0.89339603
0.89325723
0.89311846
0.89297971
0.89284099
0.89270230
0.89256363
0.89242499
0.89228637
0.89214778
0.89200921
0.89187068
0.89173216
0.89159368
0.89145521
0.89131678
0.89117837
0.89103999
0.89090163
0.89076330
0.89062499
0.89048671
0.89034846
0.89021023
0.89007203
0.88993385
0.88979570
0.88965758
0.88951948
0.88938140
0.88924335
0.88910533
0.88896734
0.88882937
0.88869142
0.88855350
0.88841561
0.88827774
0.88813990
0.88800208
0.88786429
0.88772653
0.88758879
0.88745108
0.88731339
0.88717573
0.88703809
0.88690048
0.88676290
0.88662534
0.88648780
0.88635030
0.88621281
0.88607536
0.88593792
0.88580052
0.88566314
0.88552578
0.88538846
0.88525115
0.88511388
0.88497662
0.88483940
0.88470220
0.88456502
0.88442787
0.88429075
0.88415365
0.88401657
0.88387953
0.88374250
0.88360551
0.88346853
0.88333159
0.88319467
0.88305777
0.88292090
0.88278406
0.88264724
0.88251045
0.88237368
0.88223694
0.88210022
0.88196353
0.88182686
0.88169022
0.88155361
0.88141702
0.88128045
0.88114391
0.88100740
0.88087091
0.88073445
0.88059801
0.88046160
0.88032521
0.88018885
0.88005251
0.87991620
0.87977991
0.87964365
0.87950742
0.87937121
0.87923502
0.87909886
0.87896273
0.87882662
0.87869053
0.87855447
0.87841844
0.87828243
0.87814645
0.87801049
0.87787456
0.87773865
0.87760277
0.87746691
0.87733108
0.87719527
0.87705949
0.87692374
0.87678800
0.87665230
0.87651662
0.87638096
0.87624533
0.87610973
0.87597414
0.87583859
0.87570306
0.87556755
0.87543207
0.87529662
0.87516119
0.87502578
0.87489040
0.87475505
0.87461972
0.87448441
0.87434913
0.87421388
0.87407865
0.87394344
0.87380826
0.87367311
0.87353798
0.87340287
0.87326779
0.87313274
0.87299771
0.87286270
0.87272772
0.87259277
0.87245784
0.87232293
0.87218805
0.87205320
0.87191837
0.87178356
0.87164878
0.87151402
0.87137929
0.87124459
0.87110991
0.87097525
0.87084062
0.87070601
0.87057143
0.87043687
0.87030234
0.87016783
0.87003335
0.86989889
0.86976446
0.86963005
0.86949567
0.86936131
0.86922697
0.86909266
0.86895838
0.86882412
0.86868988
0.86855567
0.86842149
0.86828733
0.86815319
0.86801908
0.86788499
0.86775093
0.86761689
0.86748288
0.86734889
0.86721493
0.86708099
0.86694708
0.86681319
0.86667932
0.86654548
0.86641167
0.86627788
0.86614411
0.86601037
0.86587665
0.86574296
0.86560929
0.86547565
0.86534203
0.86520844
0.86507487
0.86494132
0.86480780
0.86467431
0.86454083
0.86440739
0.86427397
0.86414057
0.86400719
0.86387385
0.86374052
0.86360722
0.86347395
0.86334070
0.86320747
0.86307427
0.86294109
0.86280794
0.86267481
0.86254170
0.86240862
0.86227557
0.86214254
0.86200953
0.86187655
0.86174359
0.86161066
0.86147775
0.86134486
0.86121200
0.86107917
0.86094636
0.86081357
0.86068081
0.86054807
0.86041536
0.86028267
0.86015000
0.86001736
0.85988474
0.85975215
0.85961958
0.85948704
0.85935452
0.85922202
0.85908955
0.85895710
0.85882468
0.85869228
0.85855991
0.85842756
0.85829523
0.85816293
0.85803066
0.85789840
0.85776617
0.85763397
0.85750179
0.85736963
0.85723750
0.85710539
0.85697331
0.85684125
0.85670921
0.85657720
0.85644522
0.85631325
0.85618131
0.85604940
0.85591751
0.85578564
0.85565380
0.85552198
0.85539019
0.85525842
0.85512667
0.85499495
0.85486325
0.85473158
0.85459993
0.85446830
0.85433670
0.85420512
0.85407357
0.85394204
0.85381053
0.85367905
0.85354759
0.85341616
0.85328475
0.85315336
0.85302200
