corrn_curve_cubic
1.22224482
1.22144577
1.22064879
1.21985386
1.21906098
1.21827015
1.21748136
1.21669461
1.21590989
1.21512721
1.21434655
1.21356792
1.21279131
1.21201672
1.21124414
1.21047357
1.20970500
1.20893844
1.20817388
1.20741131
1.20665073
1.20589214
1.20513554
1.20438092
1.20362827
1.20287759
1.20212889
1.20138215
1.20063738
1.19989456
1.19915370
1.19841479
1.19767782
1.19694281
1.19620973
1.19547859
1.19474938
1.19402210
1.19329675
1.19257333
1.19185182
1.19113223
1.19041454
1.18969877
1.18898491
1.18827294
1.18756287
1.18685470
1.18614842
1.18544402
1.18474151
1.18404088
1.18334212
1.18264524
1.18195023
1.18125708
1.18056580
1.17987637
1.17918880
1.17850308
1.17781922
1.17713719
1.17645701
1.17577867
1.17510216
1.17442748
1.17375463
1.17308360
1.17241439
1.17174700
1.17108143
1.17041766
1.16975571
1.16909555
1.16843720
1.16778064
1.16712587
1.16647289
1.16582170
1.16517230
1.16452467
1.16387882
1.16323474
1.16259243
1.16195188
1.16131310
1.16067608
1.16004081
1.15940729
1.15877552
1.15814550
1.15751722
1.15689068
1.15626587
1.15564279
1.15502145
1.15440182
1.15378392
1.15316774
1.15255327
1.15194051
1.15132947
1.15072012
1.15011248
1.14950654
1.14890229
1.14829973
1.14769886
1.14709967
1.14650217
1.14590635
1.14531219
1.14471972
1.14412891
1.14353976
1.14295227
1.14236645
1.14178228
1.14119976
1.14061889
1.14003966
1.13946208
1.13888613
1.13831182
1.13773914
1.13716809
1.13659867
1.13603087
1.13546468
1.13490012
1.13433716
1.13377582
1.13321608
1.13265794
1.13210140
1.13154646
1.13099311
1.13044136
1.12989118
1.12934260
1.12879559
1.12825016
1.12770630
1.12716401
1.12662329
1.12608414
1.12554654
1.12501050
1.12447602
1.12394309
1.12341171
1.12288187
1.12235357
1.12182682
1.12130159
1.12077790
1.12025574
1.11973511
1.11921600
1.11869840
1.11818233
1.11766777
1.11715471
1.11664317
1.11613313
1.11562459
1.11511754
1.11461200
1.11410794
1.11360537
1.11310429
1.11260469
1.11210657
1.11160992
1.11111475
1.11062104
1.11012881
1.10963803
1.10914872
1.10866086
1.10817446
1.10768951
1.10720601
1.10672395
1.10624334
1.10576416
1.10528642
1.10481011
1.10433523
1.10386178
1.10338975
1.10291915
1.10244996
1.10198218
1.10151582
1.10105086
1.10058731
1.10012516
1.09966441
1.09920506
1.09874710
1.09829053
1.09783535
1.09738156
1.09692914
1.09647810
1.09602844
1.09558015
1.09513323
1.09468767
1.09424348
1.09380065
1.09335918
1.09291906
1.09248029
1.09204287
1.09160679
1.09117206
1.09073867
1.09030661
1.08987589
1.08944650
1.08901843
1.08859169
1.08816628
1.08774218
1.08731939
1.08689793
1.08647777
1.08605891
1.08564136
1.08522512
1.08481017
1.08439652
1.08398415
1.08357308
1.08316330
1.08275480
1.08234758
1.08194164
1.08153697
1.08113358
1.08073145
1.08033060
1.07993100
1.07953267
1.07913559
1.07873977
1.07834520
1.07795188
1.07755981
1.07716898
1.07677939
1.07639104
1.07600393
1.07561804
1.07523339
1.07484996
1.07446776
1.07408677
1.07370701
1.07332846
1.07295112
1.07257499
1.07220007
1.07182635
1.07145384
1.07108252
1.07071240
1.07034347
1.06997573
1.06960917
1.06924380
1.06887962
1.06851661
1.06815477
1.06779412
1.06743463
1.06707630
1.06671915
1.06636315
1.06600832
1.06565464
1.06530211
1.06495074
1.06460051
1.06425143
1.06390349
1.06355669
1.06321103
1.06286650
1.06252311
1.06218084
1.06183970
1.06149969
1.06116079
1.06082302
1.06048635
1.06015081
1.05981637
1.05948303
1.05915081
1.05881968
1.05848966
1.05816073
1.05783289
1.05750614
1.05718049
1.05685592
1.05653243
1.05621002
1.05588869
1.05556844
1.05524925
1.05493114
1.05461409
1.05429811
1.05398319
1.05366933
1.05335652
1.05304477
1.05273407
1.05242442
1.05211581
1.05180825
1.05150172
1.05119624
1.05089179
1.05058837
1.05028598
1.04998462
1.04968429
1.04938497
1.04908668
1.04878940
1.04849314
1.04819788
1.04790364
1.04761040
1.04731817
1.04702694
1.04673671
1.04644747
1.04615922
1.04587197
1.04558571
1.04530043
1.04501613
1.04473282
1.04445048
1.04416912
1.04388873
1.04360931
1.04333086
1.04305337
1.04277685
1.04250128
1.04222668
1.04195302
1.04168032
1.04140858
1.04113777
1.04086792
1.04059900
1.04033103
1.04006399
1.03979788
1.03953271
1.03926847
1.03900516
1.03874277
1.03848130
1.03822075
1.03796112
1.03770240
1.03744460
1.03718770
1.03693171
1.03667663
1.03642245
1.03616917
1.03591678
1.03566529
1.03541469
1.03516498
1.03491616
1.03466823
1.03442117
1.03417500
1.03392970
1.03368528
1.03344173
1.03319905
1.03295724
1.03271629
1.03247621
1.03223698
1.03199861
1.03176110
1.03152444
1.03128864
1.03105368
1.03081956
1.03058629
1.03035386
1.03012227
1.02989151
1.02966159
1.02943250
1.02920423
1.02897680
1.02875018
1.02852439
1.02829942
1.02807526
1.02785192
1.02762939
1.02740767
1.02718676
1.02696665
1.02674734
1.02652884
1.02631113
1.02609422
1.02587810
1.02566277
1.02544822
1.02523447
1.02502149
1.02480930
1.02459789
1.02438725
1.02417739
1.02396830
1.02375998
1.02355242
1.02334563
1.02313960
1.02293434
1.02272983
1.02252607
1.02232307
1.02212082
1.02191931
1.02171856
1.02151854
1.02131927
1.02112074
1.02092294
1.02072588
1.02052955
1.02033395
1.02013908
1.01994493
1.01975150
1.01955880
1.01936682
1.01917555
1.01898499
1.01879515
1.01860601
1.01841758
1.01822986
1.01804284
1.01785652
1.01767090
1.01748597
1.01730174
1.01711819
1.01693534
1.01675317
1.01657169
1.01639089
1.01621077
1.01603133
1.01585256
1.01567446
1.01549704
1.01532029
1.01514420
1.01496877
1.01479401
1.01461991
1.01444646
1.01427367
1.01410154
1.01393005
1.01375921
1.01358902
1.01341948
1.01325057
1.01308231
1.01291468
1.01274769
1.01258133
1.01241560
1.01225051
1.01208603
1.01192219
1.01175896
1.01159636
1.01143437
1.01127300
1.01111224
1.01095210
1.01079256
1.01063363
1.01047531
1.01031759
1.01016047
1.01000394
1.00984802
1.00969269
1.00953795
1.00938380
1.00923023
1.00907726
1.00892486
1.00877305
1.00862182
1.00847116
1.00832108
1.00817158
1.00802264
1.00787427
1.00772647
1.00757923
1.00743255
1.00728644
1.00714088
1.00699588
1.00685143
1.00670753
1.00656419
1.00642139
1.00627913
1.00613742
1.00599625
1.00585562
1.00571553
1.00557597
1.00543694
1.00529845
1.00516048
1.00502304
1.00488613
1.00474974
1.00461386
1.00447851
1.00434367
1.00420935
1.00407554
1.00394223
1.00380944
1.00367715
1.00354537
1.00341409
1.00328330
1.00315302
1.00302323
1.00289394
1.00276513
1.00263682
1.00250899
1.00238165
1.00225480
1.00212842
1.00200252
1.00187711
1.00175216
1.00162769
1.00150369
1.00138016
1.00125710
1.00113451
1.00101237
1.00089070
1.00076949
1.00064873
1.00052844
1.00040859
1.00028919
1.00017025
1.00005175
0.99993370
0.99981609
0.99969892
0.99958219
0.99946590
0.99935005
0.99923462
0.99911963
0.99900507
0.99889094
0.99877723
0.99866395
0.99855109
0.99843865
0.99832662
0.99821501
0.99810382
0.99799304
0.99788267
0.99777270
0.99766314
0.99755399
0.99744524
0.99733689
0.99722893
0.99712138
0.99701422
0.99690745
0.99680107
0.99669508
0.99658948
0.99648426
0.99637942
0.99627497
0.99617089
0.99606720
0.99596388
0.99586093
0.99575835
0.99565614
0.99555430
0.99545283
0.99535172
0.99525097
0.99515059
0.99505056
0.99495089
0.99485157
0.99475260
0.99465399
0.99455572
0.99445781
0.99436023
0.99426300
0.99416611
0.99406956
0.99397335
0.99387748
0.99378194
0.99368673
0.99359185
0.99349730
0.99340307
0.99330917
0.99321560
0.99312234
0.99302941
0.99293679
0.99284448
0.99275249
0.99266081
0.99256945
0.99247839
0.99238763
0.99229718
0.99220704
0.99211719
0.99202764
0.99193839
0.99184944
0.99176078
0.99167241
0.99158433
0.99149654
0.99140904
0.99132182
0.99123488
0.99114822
0.99106185
0.99097575
0.99088992
0.99080437
0.99071909
0.99063409
0.99054935
0.99046487
0.99038066
0.99029672
0.99021303
0.99012961
0.99004644
0.98996353
0.98988087
0.98979847
0.98971632
0.98963441
0.98955275
0.98947134
0.98939017
0.98930924
0.98922856
0.98914811
0.98906789
0.98898792
0.98890817
0.98882866
0.98874938
0.98867032
0.98859149
0.98851289
0.98843450
0.98835634
0.98827840
0.98820067
0.98812316
0.98804587
0.98796879
0.98789191
0.98781525
0.98773879
0.98766254
0.98758650
0.98751065
0.98743501
0.98735956
0.98728431
0.98720925
0.98713439
0.98705972
0.98698525
0.98691095
0.98683685
0.98676293
0.98668920
0.98661564
0.98654227
0.98646907
0.98639605
0.98632321
0.98625054
0.98617804
0.98610571
0.98603354
0.98596155
0.98588972
0.98581805
0.98574655
0.98567520
0.98560401
0.98553298
0.98546210
0.98539138
0.98532081
0.98525039
0.98518012
0.98510999
0.98504001
0.98497017
0.98490047
0.98483092
0.98476150
0.98469222
0.98462307
0.98455406
0.98448518
0.98441643
0.98434780
0.98427931
0.98421094
0.98414269
0.98407457
0.98400657
0.98393868
0.98387092
0.98380326
0.98373573
0.98366830
0.98360099
0.98353378
0.98346669
0.98339970
0.98333281
0.98326603
0.98319935
0.98313276
0.98306628
0.98299989
0.98293360
0.98286740
0.98280129
0.98273527
0.98266934
0.98260350
0.98253774
0.98247207
0.98240648
0.98234097
0.98227554
0.98221019
0.98214491
0.98207971
0.98201458
0.98194952
0.98188453
0.98181961
0.98175475
0.98168997
0.98162524
0.98156058
0.98149597
0.98143143
0.98136694
0.98130251
0.98123814
0.98117381
0.98110954
0.98104532
0.98098114
0.98091701
0.98085293
0.98078889
0.98072489
0.98066094
0.98059702
0.98053314
0.98046929
0.98040548
0.98034170
0.98027796
0.98021424
0.98015055
0.98008689
0.98002326
0.97995965
0.97989606
0.97983249
0.97976894
0.97970541
0.97964189
0.97957839
0.97951491
0.97945143
0.97938797
0.97932451
0.97926106
0.97919762
0.97913418
0.97907075
0.97900731
0.97894388
0.97888045
0.97881701
0.97875357
0.97869012
0.97862666
0.97856320
0.97849972
0.97843624
0.97837274
0.97830922
0.97824569
0.97818214
0.97811858
0.97805499
0.97799138
0.97792775
0.97786409
0.97780041
0.97773669
0.97767295
0.97760918
0.97754538
0.97748154
0.97741767
0.97735376
0.97728982
0.97722583
0.97716180
0.97709774
0.97703362
0.97696947
0.97690527
0.97684102
0.97677672
0.97671237
0.97664796
0.97658351
0.97651900
0.97645443
0.97638980
0.97632512
0.97626038
0.97619557
0.97613070
0.97606577
0.97600077
0.97593570
0.97587056
0.97580536
0.97574008
0.97567473
0.97560930
0.97554380
0.97547822
0.97541256
0.97534682
0.97528100
0.97521510
0.97514912
0.97508305
0.97501689
0.97495064
0.97488430
0.97481788
0.97475136
0.97468474
0.97461804
0.97455123
0.97448433
0.97441733
0.97435022
0.97428302
0.97421571
0.97414830
0.97408078
0.97401316
0.97394542
0.97387758
0.97380962
0.97374156
0.97367337
0.97360508
0.97353666
0.97346813
0.97339948
0.97333071
0.97326181
0.97319279
0.97312365
0.97305438
0.97298499
0.97291546
0.97284581
0.97277602
0.97270610
0.97263605
0.97256586
0.97249554
0.97242508
0.97235448
0.97228373
0.97221285
0.97214182
0.97207065
0.97199933
0.97192787
0.97185626
0.97178449
0.97171258
0.97164051
0.97156830
0.97149592
0.97142339
0.97135070
0.97127786
0.97120485
0.97113168
0.97105835
0.97098486
0.97091120
0.97083737
0.97076338
0.97068922
0.97061488
0.97054038
0.97046570
0.97039085
0.97031583
0.97024062
0.97016524
0.97008968
0.97001394
0.96993802
0.96986191
0.96978563
0.96970915
0.96963249
0.96955564
0.96947860
0.96940137
0.96932395
0.96924634
0.96916853
0.96909053
0.96901233
0.96893393
0.96885533
0.96877654
0.96869754
0.96861834
0.96853893
0.96845932
0.96837950
0.96829948
0.96821924
0.96813880
0.96805814
0.96797727
0.96789619
0.96781489
0.96773338
0.96765164
0.96756969
0.96748752
0.96740513
0.96732251
0.96723968
0.96715661
0.96707332
0.96698981
0.96690606
0.96682209
0.96673788
0.96665345
0.96656878
0.96648387
0.96639873
0.96631335
0.96622774
0.96614188
0.96605579
0.96596945
0.96588287
0.96579605
0.96570898
0.96562166
0.96553410
0.96544629
0.96535823
0.96526991
0.96518135
0.96509253
0.96500346
0.96491413
0.96482454
0.96473470
0.96464460
0.96455423
0.96446361
0.96437272
0.96428157
0.96419015
0.96409847
0.96400652
0.96391430
0.96382181
0.96372905
0.96363602
0.96354272
0.96344914
0.96335528
0.96326115
0.96316674
0.96307206
0.96297709
0.96288184
0.96278631
0.96269049
0.96259439
0.96249801
0.96240134
0.96230438
0.96220713
0.96210959
0.96201176
0.96191364
0.96181522
0.96171651
0.96161750
0.96151820
0.96141859
0.96131869
0.96121849
0.96111799
0.96101718
0.96091607
0.96081466
0.96071294
0.96061091
0.96050858
0.96040593
0.96030298
0.96019971
0.96009613
0.95999224
0.95988803
0.95978351
0.95967867
0.95957351
0.95946803
0.95936224
0.95925612
0.95914968
0.95904291
0.95893582
0.95882841
0.95872067
0.95861260
0.95850420
0.95839547
0.95828642
0.95817702
0.95806730
0.95795724
0.95784685
0.95773612
0.95762505
0.95751364
0.95740190
0.95728981
0.95717738
0.95706461
0.95695150
0.95683804
0.95672423
0.95661008
0.95649558
0.95638073
0.95626553
0.95614998
0.95603407
0.95591782
0.95580121
0.95568424
0.95556692
0.95544923
0.95533119
0.95521280
0.95509404
0.95497491
0.95485543
0.95473558
0.95461537
0.95449479
0.95437384
0.95425253
0.95413085
0.95400879
0.95388637
0.95376357
0.95364041
0.95351686
0.95339294
0.95326865
0.95314398
0.95301893
0.95289350
0.95276769
0.95264150
0.95251493
0.95238797
0.95226063
0.95213291
0.95200480
0.95187630
0.95174741
0.95161814
0.95148847
0.95135841
0.95122796
0.95109712
0.95096588
0.95083425
0.95070222
0.95056979
0.95043697
0.95030374
0.95017012
0.95003609
0.94990166
0.94976683
0.94963160
0.94949596
0.94935991
0.94922346
0.94908659
0.94894932
0.94881164
0.94867355
0.94853505
0.94839613
0.94825680
0.94811705
0.94797689
0.94783631
0.94769531
0.94755389
0.94741206
0.94726980
0.94712712
0.94698402
0.94684050
0.94669655
0.94655217
0.94640737
0.94626214
0.94611648
0.94597040
0.94582388
0.94567693
0.94552955
0.94538174
0.94523349
0.94508481
0.94493569
0.94478613
0.94463614
0.94448570
0.94433483
0.94418352
0.94403176
0.94387956
0.94372692
0.94357383
0.94342030
0.94326632
0.94311190
0.94295703
0.94280170
0.94264593
0.94248971
0.94233303
0.94217590
0.94201832
0.94186028
0.94170179
0.94154284
0.94138343
0.94122357
0.94106324
0.94090246
0.94074121
0.94057951
0.94041734
0.94025470
0.94009160
0.93992804
0.93976401
0.93959951
0.93943454
0.93926910
0.93910320
0.93893682
0.93876997
0.93860265
0.93843485
0.93826658
0.93809783
0.93792861
0.93775891
0.93758873
0.93741807
0.93724693
0.93707532
0.93690321
0.93673063
0.93655756
0.93638401
0.93620998
0.93603545
0.93586044
0.93568495
0.93550896
0.93533248
0.93515552
0.93497806
0.93480011
0.93462167
0.93444273
0.93426329
0.93408337
0.93390294
0.93372202
0.93354060
0.93335868
0.93317626
0.93299334
0.93280991
0.93262599
0.93244156
0.93225662
0.93207118
0.93188524
0.93169879
0.93151183
0.93132436
0.93113638
0.93094789
0.93075889
0.93056938
0.93037935
0.93018881
0.92999776
0.92980619
0.92961411
0.92942150
0.92922838
0.92903475
0.92884059
0.92864591
0.92845071
0.92825499
0.92805874
0.92786197
0.92766468
0.92746686
0.92726851
0.92706964
0.92687024
0.92667031
0.92646985
0.92626886
0.92606734
0.92586529
0.92566271
0.92545959
0.92525593
0.92505174
0.92484702
0.92464176
0.92443596
0.92422962
0.92402274
0.92381533
0.92360737
0.92339887
0.92318982
0.92298024
0.92277011
0.92255943
0.92234821
0.92213644
0.92192413
0.92171126
0.92149785
0.92128389
0.92106938
0.92085431
0.92063869
0.92042253
0.92020580
0.91998852
0.91977069
0.91955230
0.91933336
0.91911385
0.91889379
0.91867317
0.91845199
0.91823025
0.91800794
0.91778508
0.91756165
0.91733765
0.91711310
0.91688797
0.91666228
0.91643603
0.91620920
0.91598181
0.91575385
0.91552531
0.91529621
0.91506653
0.91483629
0.91460547
0.91437407
0.91414210
0.91390956
0.91367644
0.91344274
0.91320846
0.91297361
0.91273818
0.91250216
0.91226557
0.91202839
0.91179064
0.91155230
0.91131337
0.91107386
0.91083377
0.91059309
0.91035182
0.91010997
0.90986752
0.90962449
0.90938087
0.90913666
0.90889186
0.90864646
0.90840047
0.90815389
0.90790672
0.90765895
0.90741058
0.90716162
0.90691206
0.90666190
0.90641115
0.90615979
0.90590784
0.90565528
0.90540213
0.90514837
0.90489401
0.90463904
0.90438347
0.90412730
0.90387052
0.90361313
0.90335514
0.90309653
0.90283732
0.90257750
0.90231707
0.90205603
0.90179438
0.90153212
0.90126924
0.90100575
0.90074164
0.90047692
0.90021159
0.89994563
0.89967906
0.89941188
0.89914407
0.89887564
0.89860660
0.89833693
0.89806665
0.89779574
0.89752420
0.89725205
0.89697927
0.89670587
0.89643184
0.89615718
0.89588190
0.89560599
0.89532945
0.89505228
0.89477448
0.89449605
0.89421700
0.89393731
0.89365698
0.89337603
0.89309444
0.89281221
0.89252935
0.89224586
0.89196173
0.89167696
0.89139155
0.89110551
0.89081883
0.89053150
0.89024354
0.88995493
0.88966569
0.88937580
0.88908526
0.88879409
0.88850227
0.88820980
0.88791669
0.88762293
0.88732853
0.88703347
0.88673777
0.88644142
0.88614442
0.88584677
0.88554847
0.88524951
0.88494991
0.88464965
0.88434873
0.88404717
0.88374495
0.88344207
0.88313853
0.88283434
0.88252949
0.88222399
0.88191782
0.88161100
0.88130351
0.88099536
0.88068656
0.88037709
0.88006695
0.87975616
0.87944470
0.87913257
0.87881978
0.87850633
0.87819221
0.87787742
0.87756196
0.87724583
0.87692904
0.87661157
0.87629344
0.87597463
0.87565516
0.87533501
0.87501419
0.87469269
0.87437052
0.87404768
0.87372416
0.87339996
0.87307509
0.87274954
0.87242331
0.87209641
0.87176882
0.87144056
0.87111161
0.87078199
0.87045168
0.87012069
0.86978902
0.86945667
0.86912363
0.86878990
0.86845549
0.86812040
0.86778462
0.86744815
0.86711100
0.86677315
0.86643462
0.86609540
0.86575549
0.86541489
0.86507360
0.86473161
0.86438894
0.86404557
0.86370150
0.86335674
0.86301129
0.86266515
0.86231830
0.86197076
0.86162253
0.86127359
0.86092396
0.86057363
0.86022260
0.85987086
0.85951843
0.85916530
0.85881147
0.85845693
0.85810169
0.85774575
0.85738910
0.85703175
0.85667369
0.85631493
0.85595546
0.85559528
0.85523440
0.85487281
0.85451051
0.85414750
0.85378378
0.85341935
0.85305421
0.85268835
0.85232179
0.85195451
0.85158652
0.85121782
0.85084840
0.85047827
0.85010742
0.84973585
0.84936357
0.84899057
0.84861686
0.84824242
0.84786727
0.84749140
0.84711480
0.84673749
0.84635946
0.84598070
0.84560122
0.84522102
0.84484010
