corrn_curve_quartic
0.55052046
0.55465171
0.55877510
0.56287930
0.56697564
0.57105257
0.57511634
0.57916639
0.58320330
0.58722682
0.59123115
0.59522764
0.59920531
0.60317542
0.60712649
0.61106430
0.61498886
0.61890019
0.62279295
0.62667789
0.63054404
0.63440266
0.63823727
0.64206438
0.64587813
0.64967911
0.65346704
0.65723647
0.66099811
0.66474159
0.66847214
0.67218977
0.67589449
0.67958632
0.68326020
0.68692632
0.69057430
0.69420949
0.69783719
0.70144710
0.70504402
0.70862327
0.71219504
0.71575387
0.71929513
0.72282377
0.72633981
0.72984837
0.73333415
0.73681249
0.74027829
0.74372654
0.74716733
0.75059090
0.75400178
0.75740025
0.76078656
0.76416023
0.76752179
0.77087075
0.77419788
0.77752246
0.78082990
0.78412509
0.78741260
0.79067855
0.79393708
0.79717868
0.80041287
0.80363044
0.80683566
0.81002880
0.81321010
0.81637911
0.81953609
0.82267667
0.82580986
0.82892626
0.83203095
0.83512372
0.83820886
0.84127354
0.84433041
0.84737564
0.85040902
0.85342615
0.85642732
0.85942532
0.86240716
0.86537727
0.86833589
0.87127849
0.87421352
0.87713282
0.88004028
0.88293849
0.88582297
0.88869377
0.89155703
0.89440267
0.89723890
0.90006157
0.90287691
0.90567666
0.90846519
0.91124415
0.91400763
0.91675995
0.91949871
0.92222836
0.92494850
0.92765354
0.93034711
0.93302765
0.93569895
0.93835902
0.94100593
0.94364148
0.94626433
0.94887586
0.95147628
0.95406942
0.95664575
0.95921293
0.96176737
0.96430872
0.96684115
0.96936054
0.97186917
0.97436668
0.97685345
0.97932748
0.98179246
0.98424638
0.98668782
0.98911664
0.99153644
0.99394367
0.99634013
0.99872408
1.00109924
1.00346175
1.00581027
1.00815144
1.01048040
1.01279855
1.01510627
1.01740322
1.01968975
1.02196404
1.02422762
1.02648085
1.02872357
1.03095415
1.03317263
1.03538084
1.03758010
1.03976895
1.04194579
1.04411225
1.04626533
1.04841112
1.05054517
1.05266876
1.05478224
1.05688233
1.05897516
1.06105636
1.06312736
1.06518802
1.06723577
1.06927476
1.07130362
1.07331936
1.07532803
1.07732513
1.07931218
1.08128787
1.08325340
1.08521040
1.08715466
1.08909041
1.09101464
1.09292767
1.09483364
1.09672548
1.09861015
1.10048510
1.10234742
1.10420133
1.10604544
1.10787704
1.10970161
1.11151251
1.11331761
1.11510897
1.11689214
1.11866418
1.12042922
1.12218081
1.12392541
1.12565781
1.12738181
1.12909382
1.13079885
1.13249181
1.13417781
1.13585054
1.13751631
1.13917015
1.14081704
1.14245082
1.14407656
1.14569402
1.14729970
1.14889737
1.15048440
1.15206106
1.15363068
1.15518880
1.15673651
1.15827732
1.15980660
1.16132669
1.16283977
1.16434039
1.16583300
1.16731649
1.16878987
1.17025404
1.17170806
1.17315520
1.17459124
1.17601815
1.17743511
1.17884510
1.18024411
1.18163418
1.18301532
1.18438846
1.18575075
1.18710417
1.18844873
1.18978343
1.19111032
1.19242839
1.19373668
1.19503619
1.19632607
1.19760712
1.19887955
1.20014317
1.20139820
1.20264353
1.20388207
1.20511019
1.20632877
1.20753967
1.20874099
1.20993383
1.21111722
1.21229298
1.21345934
1.21461729
1.21576667
1.21690759
1.21803920
1.21916323
1.22027808
1.22138361
1.22248168
1.22357048
1.22465101
1.22572314
1.22678703
1.22784103
1.22888755
1.22992582
1.23095584
1.23197685
1.23298966
1.23399503
1.23499146
1.23597823
1.23695762
1.23792896
1.23889211
1.23984717
1.24079422
1.24173106
1.24266193
1.24358344
1.24449756
1.24540375
1.24629992
1.24718950
1.24807106
1.24894475
1.24980922
1.25066645
1.25151580
1.25235608
1.25318909
1.25401490
1.25483109
1.25564067
1.25644192
1.25723474
1.25802049
1.25879845
1.25956816
1.26033017
1.26108445
1.26183055
1.26256957
1.26329985
1.26402307
1.26473923
1.26544618
1.26614665
1.26683856
1.26752341
1.26820023
1.26887006
1.26953194
1.27018581
1.27083278
1.27147177
1.27210387
1.27272761
1.27334439
1.27395337
1.27455455
1.27514931
1.27573584
1.27631551
1.27688744
1.27745211
1.27800909
1.27855887
1.27910222
1.27963712
1.28016564
1.28068621
1.28119923
1.28170624
1.28220499
1.28269664
1.28318189
1.28365899
1.28412939
1.28459306
1.28504902
1.28549765
1.28594023
1.28637485
1.28680253
1.28722322
1.28763730
1.28804412
1.28844376
1.28883648
1.28922292
1.28960164
1.28997380
1.29033882
1.29069705
1.29104902
1.29139337
1.29173124
1.29206210
1.29238623
1.29270339
1.29301432
1.29331832
1.29361541
1.29390586
1.29418942
1.29446657
1.29473692
1.29500064
1.29525781
1.29550819
1.29575241
1.29598970
1.29622048
1.29644476
1.29666252
1.29687366
1.29707833
1.29727656
1.29746835
1.29765358
1.29783241
1.29800486
1.29817095
1.29833066
1.29848391
1.29863074
1.29877126
1.29890559
1.29903364
1.29915532
1.29927075
1.29937995
1.29948293
1.29957962
1.29967011
1.29975438
1.29983254
1.29990451
1.29997039
1.30003010
1.30008372
1.30013117
1.30017260
1.30020799
1.30023731
1.30026060
1.30027786
1.30028913
1.30029443
1.30029374
1.30028712
1.30027455
1.30025606
1.30023166
1.30020139
1.30016524
1.30012320
1.30007537
1.30002168
1.29996216
1.29989693
1.29982586
1.29974896
1.29966648
1.29957811
1.29948402
1.29938434
1.29927890
1.29916793
1.29905111
1.29892863
1.29880069
1.29866702
1.29852794
1.29838305
1.29823279
1.29807684
1.29791546
1.29774841
1.29757609
1.29739810
1.29721477
1.29702580
1.29683165
1.29663175
1.29642670
1.29621607
1.29600017
1.29577872
1.29555221
1.29532051
1.29508291
1.29484051
1.29459241
1.29433937
1.29408125
1.29381722
1.29354853
1.29327416
1.29299496
1.29271077
1.29242091
1.29212605
1.29182627
1.29152104
1.29121092
1.29089562
1.29057544
1.29024992
1.28991952
1.28958403
1.28924319
1.28889783
1.28854742
1.28819197
1.28783151
1.28746574
1.28709556
1.28672040
1.28634054
1.28595547
1.28556514
1.28517047
1.28477093
1.28436645
1.28395742
1.28354322
1.28312413
1.28270052
1.28227212
1.28183922
1.28140116
1.28095867
1.28051140
1.28005973
1.27960295
1.27914177
1.27867590
1.27820533
1.27773040
1.27725008
1.27676584
1.27627692
1.27578339
1.27528520
1.27478283
1.27427623
1.27376464
1.27324848
1.27272818
1.27220333
1.27167357
1.27114006
1.27060166
1.27005876
1.26951182
1.26896041
1.26840455
1.26784425
1.26728038
1.26671170
1.26613858
1.26556111
1.26497969
1.26439349
1.26380336
1.26320938
1.26261066
1.26200805
1.26140068
1.26078950
1.26017505
1.25955536
1.25893143
1.25830377
1.25767234
1.25703627
1.25639652
1.25575208
1.25510446
1.25445223
1.25379587
1.25313638
1.25247172
1.25180356
1.25113179
1.25045542
1.24977559
1.24909215
1.24840369
1.24771171
1.24701684
1.24631686
1.24561402
1.24490666
1.24419528
1.24348059
1.24276197
1.24203996
1.24131353
1.24058380
1.23984954
1.23911206
1.23837127
1.23762551
1.23687766
1.23612479
1.23536934
1.23460894
1.23384647
1.23307915
1.23230863
1.23153493
1.23075695
1.22997589
1.22919050
1.22840268
1.22760993
1.22681472
1.22601651
1.22521344
1.22440740
1.22359768
1.22278508
1.22196883
1.22114835
1.22032563
1.21949943
1.21866897
1.21783565
1.21699950
1.21615850
1.21531537
1.21446877
1.21361870
1.21276451
1.21190818
1.21104850
1.21018535
1.20931817
1.20844900
1.20757639
1.20670042
1.20582118
1.20493782
1.20405191
1.20316334
1.20227146
1.20137630
1.20047715
1.19957617
1.19867123
1.19776377
1.19685382
1.19593992
1.19502349
1.19410320
1.19317973
1.19225384
1.19132480
1.19039329
1.18945865
1.18852098
1.18758012
1.18663693
1.18568998
1.18474064
1.18378825
1.18283282
1.18187513
1.18091371
1.17994992
1.17898320
1.17801350
1.17704161
1.17606597
1.17508817
1.17410736
1.17312370
1.17213793
1.17114998
1.17015834
1.16916390
1.16816652
1.16716636
1.16616409
1.16515898
1.16415115
1.16314124
1.16212854
1.16111223
1.16009398
1.15907296
1.15804920
1.15702437
1.15599589
1.15496479
1.15393099
1.15289609
1.15185692
1.15081585
1.14977135
1.14872667
1.14767775
1.14662613
1.14557283
1.14451771
1.14345915
1.14239887
1.14133604
1.14027066
1.13920273
1.13813315
1.13706019
1.13598559
1.13490938
1.13382981
1.13274777
1.13166407
1.13057801
1.12949031
1.12839939
1.12730687
1.12621113
1.12511381
1.12401501
1.12291214
1.12180952
1.12070276
1.11959547
1.11848404
1.11737303
1.11625791
1.11514141
1.11402263
1.11290251
1.11177829
1.11065450
1.10952673
1.10839858
1.10726814
1.10613373
1.10499983
1.10386200
1.10272376
1.10158338
1.10043908
1.09929536
1.09814765
1.09699971
1.09584967
1.09469576
1.09354242
1.09238616
1.09122785
1.09006845
1.08890702
1.08774262
1.08657716
1.08541057
1.08424209
1.08306971
1.08189816
1.08072369
1.07954834
1.07836903
1.07719070
1.07600959
1.07482649
1.07364247
1.07245463
1.07126785
1.07007823
1.06888678
1.06769447
1.06650034
1.06530243
1.06410567
1.06290604
1.06170572
1.06050363
1.05929969
1.05809410
1.05688667
1.05567861
1.05446675
1.05325527
1.05204300
1.05082805
1.04961243
1.04839425
1.04717532
1.04595576
1.04473357
1.04351066
1.04228534
1.04105923
1.03983163
1.03860348
1.03737274
1.03614137
1.03490855
1.03367420
1.03244027
1.03120278
1.02996492
1.02872547
1.02748463
1.02624223
1.02499939
1.02375418
1.02250845
1.02126326
1.02001479
1.01876575
1.01751448
1.01626275
1.01500955
1.01375716
1.01250134
1.01124521
1.00998765
1.00872887
1.00746971
1.00620936
1.00494656
1.00368363
1.00242037
1.00115491
0.99988914
0.99862318
0.99735494
0.99608443
0.99481481
0.99354399
0.99227199
0.99099880
0.98972551
0.98844999
0.98717545
0.98589765
0.98461968
0.98334175
0.98206166
0.98078036
0.97950020
0.97821780
0.97693540
0.97565098
0.97436755
0.97308104
0.97179555
0.97050796
0.96921937
0.96793085
0.96664135
0.96535194
0.96405942
0.96276917
0.96147582
0.96018369
0.95889052
0.95759439
0.95630059
0.95500363
0.95370697
0.95240943
0.95111199
0.94981371
0.94851360
0.94721471
0.94591282
0.94461240
0.94331107
0.94200784
0.94070601
0.93940340
0.93809784
0.93679370
0.93548991
0.93418320
0.93287783
0.93157185
0.93026298
0.92895669
0.92764850
0.92634084
0.92503021
0.92372122
0.92241257
0.92110218
0.91979017
0.91847962
0.91716846
0.91585681
0.91454556
0.91323153
0.91191912
0.91060615
0.90929263
0.90797856
0.90666495
0.90534982
0.90403417
0.90271913
0.90140358
0.90008855
0.89877204
0.89745606
0.89613973
0.89482285
0.89350663
0.89218898
0.89087191
0.88955443
0.88823667
0.88691950
0.88559974
0.88428182
0.88296354
0.88164601
0.88032703
0.87900883
0.87769019
0.87637134
0.87505219
0.87373274
0.87241289
0.87109398
0.86977481
0.86845526
0.86713558
0.86581554
0.86449638
0.86317823
0.86185863
0.86053883
0.85921884
0.85789978
0.85658065
0.85526012
0.85394267
0.85262296
0.85130422
0.84998423
0.84866524
0.84734725
0.84602905
0.84470975
0.84339148
0.84207414
0.84075573
0.83943715
0.83811864
0.83680221
0.83548463
0.83416714
0.83285065
0.83153303
0.83021654
0.82890119
0.82758474
0.82626732
0.82495307
0.82363686
0.82232160
0.82100765
0.81969265
0.81837987
0.81706506
0.81575036
0.81443800
0.81312454
0.81181345
0.81050037
0.80918957
0.80787681
0.80656522
0.80525604
0.80394492
0.80263501
0.80132530
0.80001691
0.79870764
0.79739971
0.79609202
0.79478569
0.79347961
0.79217158
0.79086705
0.78956069
0.78825685
0.78695109
0.78564886
0.78434583
0.78304214
0.78174089
0.78044010
0.77913733
0.77783825
0.77653744
0.77523800
0.77394006
0.77264142
0.77134428
0.77004756
0.76875238
0.76745541
0.76616109
0.76486723
0.76357271
0.76227977
0.76098830
0.75969743
0.75840594
0.75711595
0.75582658
0.75453872
0.75325138
0.75196249
0.75067623
0.74939064
0.74810660
0.74682313
0.74554024
0.74425584
0.74297413
0.74169401
0.74041363
0.73913474
0.73785659
0.73657908
0.73530331
0.73402710
0.73275254
0.73147658
0.73020348
0.72893205
0.72766033
0.72639030
0.72512001
0.72385141
0.72258464
0.72131762
0.72005125
0.71878671
0.71752294
0.71626005
0.71499783
0.71373749
0.71247686
0.71122017
0.70996224
0.70870513
0.70744885
0.70619449
0.70493979
0.70368713
0.70243534
0.70118539
0.69993534
0.69868823
0.69744104
0.69619466
0.69494918
0.69370473
0.69246218
0.69122164
0.68998096
0.68874124
0.68750259
0.68626684
0.68503109
0.68379538
0.68256151
0.68133088
0.68009913
0.67886946
0.67763975
0.67641416
0.67518759
0.67396197
0.67273963
0.67151719
0.67029487
0.66907670
0.66785751
0.66663953
0.66542465
0.66420983
0.66299613
0.66178472
0.66057330
0.65936511
0.65815704
0.65694908
0.65574532
0.65454075
0.65333946
0.65213727
0.65093837
0.64973954
0.64854410
0.64734781
0.64615473
0.64496091
0.64377032
0.64258005
0.64139300
0.64020517
0.63902068
0.63783654
0.63665463
0.63547300
0.63429370
0.63311572
0.63194010
0.63076580
0.62959183
0.62842023
0.62725100
0.62608111
0.62491452
0.62374840
0.62258468
0.62142327
0.62026134
0.61910274
0.61794566
0.61678891
0.61563570
0.61448282
0.61333240
0.61218254
0.61103504
0.60988902
0.60874547
0.60760142
0.60646086
0.60532180
0.60418425
0.60304723
0.60191372
0.60078164
0.59965120
0.59852231
0.59739399
0.59626812
0.59514490
0.59402317
0.59290311
0.59178456
0.59066770
0.58955333
0.58843873
0.58732760
0.58621810
0.58511025
0.58400500
0.58290045
0.58179852
0.58069825
0.57959967
0.57850277
0.57740852
0.57631596
0.57522416
0.57413588
0.57304847
0.57196278
0.57087969
0.56979748
0.56871797
0.56764013
0.56656499
0.56549078
0.56441920
0.56334855
0.56228055
0.56121528
0.56015182
0.55909017
0.55802942
0.55697152
0.55591537
0.55486189
0.55380944
0.55276069
0.55171288
0.55066695
0.54962280
0.54858064
0.54754037
0.54650375
0.54546821
0.54443459
0.54340280
0.54237476
0.54134693
0.54032187
0.53929885
0.53827859
0.53726031
0.53624310
0.53522966
0.53421732
0.53320608
0.53219782
0.53119318
0.53018975
0.52918746
0.52818897
0.52719163
0.52619801
0.52520477
0.52421360
0.52322702
0.52223999
0.52125756
0.52027556
0.51929558
0.51831943
0.51734460
0.51637267
0.51540200
0.51443517
0.51346886
0.51250631
0.51154505
0.51058680
0.50962987
0.50867680
0.50772423
0.50677552
0.50582816
0.50488375
0.50394163
0.50300173
0.50206479
0.50112933
0.50019684
0.49926586
0.49833868
0.49741302
0.49648954
0.49556914
0.49465028
0.49373443
0.49282169
0.49190969
0.49100154
0.49009569
0.48919136
0.48829094
0.48739206
0.48649622
0.48560202
0.48471095
0.48382224
0.48293510
0.48205183
0.48117101
0.48029249
0.47941644
0.47854200
0.47767144
0.47680260
0.47593686
0.47507355
0.47421197
0.47335352
0.47249827
0.47164547
0.47079513
0.46994724
0.46910115
0.46825821
0.46741843
0.46658053
0.46574573
0.46491425
0.46408453
0.46325733
0.46243331
0.46161189
0.46079293
0.45997658
0.45916278
0.45835219
0.45754351
0.45673804
0.45593515
0.45513491
0.45433789
0.45354276
0.45275094
0.45196172
0.45117511
0.45039120
0.44961046
0.44883181
0.44805634
0.44728359
0.44651350
0.44574606
0.44498128
0.44422048
0.44346173
0.44270567
0.44195223
0.44120155
0.44045425
0.43971025
0.43896830
0.43822914
0.43749264
0.43675888
0.43602917
0.43530161
0.43457610
0.43385399
0.43313465
0.43241937
0.43170622
0.43099522
0.43028828
0.42958351
0.42888217
0.42818301
0.42748786
0.42679434
0.42610427
0.42541822
0.42473383
0.42405223
0.42337476
0.42269949
0.42202768
0.42135821
0.42069155
0.42002897
0.41936875
0.41871195
0.41805747
0.41740589
0.41675782
0.41611267
0.41547103
0.41483116
0.41419596
0.41356255
0.41293267
0.41230569
0.41168230
0.41106075
0.41044380
0.40982877
0.40921729
0.40860874
0.40800375
0.40740072
0.40680229
0.40620638
0.40561291
0.40502354
0.40443667
0.40385343
0.40327318
0.40269546
0.40212185
0.40155027
0.40098279
0.40041839
0.39985657
0.39929880
0.39874417
0.39819214
0.39764323
0.39709787
0.39655568
0.39601662
0.39548065
0.39494834
0.39441913
0.39389264
0.39336974
0.39285046
0.39233389
0.39182053
0.39131078
0.39080421
0.39030083
0.38980110
0.38930412
0.38881035
0.38832024
0.38783336
0.38734970
0.38686971
0.38639295
0.38591896
0.38544827
0.38498126
0.38451789
0.38405741
0.38360062
0.38314707
0.38269680
0.38224985
0.38180617
0.38136619
0.38092915
0.38049579
0.38006575
0.37963906
0.37921606
0.37879601
0.37837968
0.37796669
0.37755706
0.37715079
0.37674788
0.37634868
0.37595252
0.37556011
0.37517108
0.37478612
0.37440388
0.37402502
0.37364994
0.37327825
0.37291001
0.37254516
0.37218378
0.37182647
0.37147226
0.37112154
0.37077424
0.37043040
0.37009034
0.36975375
0.36942064
0.36909070
0.36876456
0.36844251
0.36812336
0.36780801
0.36749588
0.36718781
0.36688301
0.36658201
0.36628451
0.36599057
0.36569992
0.36541331
0.36513003
0.36485053
0.36457460
0.36430226
0.36403323
0.36376827
0.36350668
0.36324911
0.36299471
0.36274389
0.36249715
0.36225378
0.36201448
0.36177837
0.36154588
0.36131744
0.36109226
0.36087110
0.36065342
0.36043976
0.36022939
0.36002307
0.35982006
0.35962107
0.35942560
0.35923416
0.35904607
0.35886203
0.35868168
0.35850471
0.35833194
0.35816259
0.35799711
0.35783551
0.35767735
0.35752323
0.35737271
0.35722622
0.35708335
0.35694425
0.35680891
0.35667758
0.35654968
0.35642592
0.35630582
0.35618953
0.35607704
0.35596844
0.35586376
0.35576270
0.35566556
0.35557232
0.35548291
0.35539719
0.35531546
0.35523765
0.35516362
0.35509339
0.35502715
0.35496477
0.35490626
0.35485167
0.35480092
0.35475401
0.35471109
0.35467205
0.35463693
0.35460571
0.35457842
0.35455503
0.35453559
0.35452007
0.35450847
0.35450083
0.35449713
0.35449738
0.35450159
0.35450975
0.35452187
0.35453796
0.35455803
0.35458206
0.35461009
0.35464209
0.35467809
0.35471808
0.35476204
0.35481004
0.35486202
0.35491802
0.35497804
0.35504209
0.35511011
0.35518217
0.35525827
0.35533849
0.35542270
0.35551096
0.35560321
0.35569961
0.35579990
0.35590436
0.35601290
0.35612554
0.35624227
0.35636310
0.35648780
0.35661673
0.35674978
0.35688694
0.35702823
0.35717337
0.35732292
0.35747647
0.35763416
0.35779587
0.35796186
0.35813185
0.35830602
0.35848434
0.35866683
0.35885334
0.35904418
0.35923924
0.35943812
0.35964135
0.35984881
0.36006027
0.36027613
0.36049622
0.36072011
0.36094863
0.36118097
0.36141777
0.36165880
0.36190362
0.36215315
0.36240648
0.36266428
0.36292610
0.36319244
0.36346279
0.36373745
0.36401609
0.36429955
0.36458680
0.36487858
0.36517414
0.36547453
0.36577869
0.36608771
0.36640050
0.36671788
0.36703902
0.36736478
0.36769488
0.36802933
0.36836809
0.36871091
0.36905780
0.36940963
0.36976553
0.37012549
0.37049014
0.37085882
0.37123188
0.37160932
0.37199119
0.37237706
0.37276807
0.37316241
0.37356149
