corrn_curve_linear
1.61767390
1.61684991
1.61602479
1.61520080
1.61437567
1.61355174
1.61272775
1.61190382
1.61107983
1.61025584
1.60943304
1.60860911
1.60778632
1.60696232
1.60613953
1.60531673
1.60449393
1.60367114
1.60284947
1.60202668
1.60120507
1.60038228
1.59956181
1.59874014
1.59791854
1.59709688
1.59627521
1.59545474
1.59463314
1.59381267
1.59299220
1.59217173
1.59135126
1.59053079
1.58971145
1.58889098
1.58807171
1.58725243
1.58643196
1.58561263
1.58479335
1.58397521
1.58315587
1.58233659
1.58151845
1.58070031
1.57988217
1.57906283
1.57824588
1.57742774
1.57660960
1.57579265
1.57497450
1.57415750
1.57334055
1.57252360
1.57170659
1.57088964
1.57007263
1.56925568
1.56844106
1.56762405
1.56680823
1.56599242
1.56517547
1.56436085
1.56354503
1.56273041
1.56191459
1.56109991
1.56028529
1.55947067
1.55865599
1.55784136
1.55702674
1.55621325
1.55539857
1.55458514
1.55377165
1.55295817
1.55214354
1.55133119
1.55051776
1.54970427
1.54889078
1.54807849
1.54726733
1.54645384
1.54564154
1.54482925
1.54401690
1.54320573
1.54239344
1.54158228
1.54077118
1.53995942
1.53914826
1.53833769
1.53752599
1.53671603
1.53590546
1.53509549
1.53428433
1.53347437
1.53266434
1.53185377
1.53104440
1.53023497
1.52942620
1.52861677
1.52780680
1.52699796
1.52618919
1.52538095
1.52457212
1.52376328
1.52295505
1.52214687
1.52133917
1.52053153
1.51972389
1.51891505
1.51810801
1.51730037
1.51649327
1.51568682
1.51487971
1.51407327
1.51326676
1.51246031
1.51165381
1.51084790
1.51004139
1.50923494
1.50842903
1.50762372
1.50681781
1.50601249
1.50520718
1.50440246
1.50359709
1.50279237
1.50198879
1.50118407
1.50037989
1.49957577
1.49877160
1.49796748
1.49716330
1.49635971
1.49555619
1.49475261
1.49394902
1.49314604
1.49234365
1.49154120
1.49073821
1.48993522
1.48913284
1.48833045
1.48752919
1.48672680
1.48592495
1.48512315
1.48432130
1.48352064
1.48271885
1.48191759
1.48111634
1.48031514
1.47951502
1.47871436
1.47791370
1.47711424
1.47631358
1.47551351
1.47471345
1.47391393
1.47311446
1.47231440
1.47151547
1.47071594
1.46991707
1.46911874
1.46831922
1.46752148
1.46672261
1.46592368
1.46512595
1.46432762
1.46352928
1.46273215
1.46193381
1.46113721
1.46033888
1.45954234
1.45874514
1.45794860
1.45715086
1.45635486
1.45555766
1.45476165
1.45396511
1.45316970
1.45237310
1.45157769
1.45078109
1.44998628
1.44919028
1.44839546
1.44759946
1.44680524
1.44601037
1.44521497
1.44442075
1.44362588
1.44283166
1.44203799
1.44124318
1.44044950
1.43965642
1.43886214
1.43806906
1.43727598
1.43648177
1.43568928
1.43489620
1.43410312
1.43331058
1.43251809
1.43172620
1.43093312
1.43014117
1.42934929
1.42855794
1.42776545
1.42697410
1.42618275
1.42539140
1.42459951
1.42380876
1.42301801
1.42222725
1.42143709
1.42064634
1.41985559
1.41906543
1.41827527
1.41748565
1.41669609
1.41590647
1.41511691
1.41432729
1.41353833
1.41274817
1.41195915
1.41117072
1.41038170
1.40959333
1.40880490
1.40801707
1.40722865
1.40644082
1.40565293
1.40486510
1.40407727
1.40329003
1.40250220
1.40171491
1.40092827
1.40014098
1.39935434
1.39856765
1.39778101
1.39699431
1.39620881
1.39542271
1.39463661
1.39385051
1.39306501
1.39227951
1.39149341
1.39070790
1.38992359
1.38913869
1.38835372
1.38756882
1.38678391
1.38599894
1.38521577
1.38443086
1.38364709
1.38286278
1.38207841
1.38129583
1.38051206
1.37972835
1.37894457
1.37816200
1.37737882
1.37659564
1.37581360
1.37503102
1.37424785
1.37346640
1.37268382
1.37190178
1.37112040
1.37033835
1.36955637
1.36877493
1.36799348
1.36721209
1.36643125
1.36564980
1.36486955
1.36408870
1.36330726
1.36252760
1.36174675
1.36096704
1.36018678
1.35940713
1.35862688
1.35784716
1.35706810
1.35628839
1.35550933
1.35472962
1.35395109
1.35317204
1.35239352
1.35161559
1.35083647
1.35005855
1.34928003
1.34850210
1.34772418
1.34694685
1.34616946
1.34539094
1.34461421
1.34383628
1.34305949
1.34228330
1.34150537
1.34072918
1.33995298
1.33917566
1.33840006
1.33762387
1.33684713
1.33607154
1.33529648
1.33451974
1.33374474
1.33296968
1.33219468
1.33141908
1.33064408
1.32986962
1.32909522
1.32831962
1.32754575
1.32677129
1.32599748
1.32522361
1.32444855
1.32367534
1.32290147
1.32212820
1.32135493
1.32058226
1.31980839
1.31903512
1.31826245
1.31748971
1.31671764
1.31594496
1.31517283
1.31440075
1.31362861
1.31285713
1.31208440
1.31131292
1.31054138
1.30976984
1.30899836
1.30822742
1.30745647
1.30668553
1.30591459
1.30514424
1.30437389
1.30360355
1.30283314
1.30206279
1.30129304
1.30052383
1.29975468
1.29898487
1.29821512
1.29744591
1.29667675
1.29590754
1.29513833
1.29436971
1.29360115
1.29283314
1.29206452
1.29129650
1.29052788
1.28975986
1.28899184
1.28822496
1.28745754
1.28668952
1.28592203
1.28515461
1.28438832
1.28362150
1.28285401
1.28208719
1.28132150
1.28055461
1.27978832
1.27902203
1.27825634
1.27749065
1.27672442
1.27595926
1.27519357
1.27442788
1.27366338
1.27289822
1.27213253
1.27136863
1.27060348
1.26983838
1.26907442
1.26830992
1.26754655
1.26678200
1.26601750
1.26525413
1.26449017
1.26372740
1.26296344
1.26220067
1.26143731
1.26067454
1.25991117
1.25914900
1.25838617
1.25762400
1.25686123
1.25609960
1.25533683
1.25457519
1.25381302
1.25305139
1.25228922
1.25152818
1.25076774
1.25000551
1.24924506
1.24848343
1.24772299
1.24696314
1.24620151
1.24544166
1.24468063
1.24392072
1.24316147
1.24240103
1.24164113
1.24088188
1.24012198
1.23936273
1.23860342
1.23784471
1.23708546
1.23632675
1.23556804
1.23480873
1.23405062
1.23329251
1.23253439
1.23177628
1.23101757
1.23026005
1.22950253
1.22874555
1.22798803
1.22722992
1.22647294
1.22571602
1.22495904
1.22420266
1.22344573
1.22268875
1.22193237
1.22117605
1.22042026
1.21966388
1.21890809
1.21815230
1.21739711
1.21664132
1.21588607
1.21513088
1.21437569
1.21362104
1.21286525
1.21211066
1.21135601
1.21060141
1.20984676
1.20909276
1.20833930
1.20758525
1.20683119
1.20607773
1.20532427
1.20457027
1.20381735
1.20306389
1.20231043
1.20155757
1.20080471
1.20005184
1.19929898
1.19854725
1.19779498
1.19704266
1.19629039
1.19553866
1.19478640
1.19403467
1.19328353
1.19253186
1.19178073
1.19102900
1.19027787
1.18952793
1.18877680
1.18802566
1.18727513
1.18652513
1.18577459
1.18502465
1.18427412
1.18352472
1.18277478
1.18202484
1.18127603
1.18052603
1.17977669
1.17902789
1.17827848
1.17752974
1.17678147
1.17603213
1.17528332
1.17453571
1.17378690
1.17303929
1.17229108
1.17154281
1.17079520
1.17004759
1.16930051
1.16855290
1.16780589
1.16705822
1.16631120
1.16556472
1.16481711
1.16407123
1.16332415
1.16257827
1.16183126
1.16108591
1.16033949
1.15959361
1.15884827
1.15810238
1.15735710
1.15661122
1.15586653
1.15512065
1.15437590
1.15363175
1.15288646
1.15214178
1.15139703
1.15065294
1.14990879
1.14916404
1.14842048
1.14767699
1.14693284
1.14618928
1.14544632
1.14470217
1.14395922
1.14321626
1.14247330
1.14172975
1.14098732
1.14024496
1.13950254
1.13875959
1.13801782
1.13727600
1.13653417
1.13579241
1.13504999
1.13430822
1.13356700
1.13282577
1.13208454
1.13134272
1.13060209
1.12986086
1.12912023
1.12838019
1.12763956
1.12689947
1.12615884
1.12541821
1.12467818
1.12393814
1.12319864
1.12245915
1.12171971
1.12098021
1.12024131
1.11950188
1.11876298
1.11802408
1.11728518
1.11654687
1.11580803
1.11506967
1.11433136
1.11359306
1.11285535
1.11211705
1.11137934
1.11064158
1.10990387
1.10916676
1.10843019
1.10769302
1.10695591
1.10621874
1.10548163
1.10474505
1.10400848
1.10327197
1.10253599
1.10180002
1.10106344
1.10032747
1.09959149
1.09885551
1.09812073
1.09738529
1.09664991
1.09591453
1.09518029
1.09444491
1.09371006
1.09297468
1.09224104
1.09150625
1.09077141
1.09003722
1.08930357
1.08856933
1.08783568
1.08710203
1.08636838
1.08563473
1.08490168
1.08416803
1.08343498
1.08270252
1.08196947
1.08123642
1.08050390
1.07977145
1.07903953
1.07830707
1.07757515
1.07684270
1.07611078
1.07537946
1.07464700
1.07391627
1.07318436
1.07245363
1.07172171
1.07099158
1.07026026
1.06952954
1.06879881
1.06806868
1.06733736
1.06660777
1.06587704
1.06514751
1.06441792
1.06368719
1.06295820
1.06222807
1.06149908
1.06077008
1.06003995
1.05931155
1.05858196
1.05785356
1.05712517
1.05639563
1.05566777
1.05493937
1.05421098
1.05348318
1.05275537
1.05202698
1.05129917
1.05057191
1.04984470
1.04911631
1.04838964
1.04766237
1.04693577
1.04620791
1.04548183
1.04475523
1.04402856
1.04330249
1.04257522
1.04184975
1.04112368
1.04039761
1.03967213
1.03894666
1.03821999
1.03749511
1.03676958
1.03604470
1.03531982
1.03459489
1.03387001
1.03314507
1.03242079
1.03169526
1.03097098
1.03024723
1.02952289
1.02879915
1.02807487
1.02735112
1.02662797
1.02590423
1.02518102
1.02445734
1.02373413
1.02301099
1.02228844
1.02156529
1.02084268
1.02012013
1.01939758
1.01867616
1.01795355
1.01723160
1.01650958
1.01578763
1.01506562
1.01434420
1.01362225
1.01290083
1.01218055
1.01145919
1.01073831
1.01001695
1.00929613
1.00857525
1.00785563
1.00713481
1.00641458
1.00569430
1.00497408
1.00425439
1.00353476
1.00281448
1.00209485
1.00137576
1.00065614
0.99993705
0.99921855
0.99849947
0.99777978
0.99706129
0.99634279
0.99562430
0.99490581
0.99418791
0.99346942
0.99275212
0.99203363
0.99131567
0.99059837
0.98988047
0.98916252
0.98844582
0.98772846
0.98701169
0.98629439
0.98557823
0.98486093
0.98414476
0.98342800
0.98271124
0.98199507
0.98127891
0.98056334
0.97984658
0.97913160
0.97841544
0.97770047
0.97698543
0.97626927
0.97555489
0.97483926
0.97412429
0.97340932
0.97269488
0.97198045
0.97126548
0.97055164
0.96983661
0.96912283
0.96840899
0.96769455
0.96698131
0.96626807
0.96555363
0.96484039
0.96412775
0.96341391
0.96270120
0.96198856
0.96127472
0.96056267
0.95984997
0.95913792
0.95842462
0.95771257
0.95700106
0.95628895
0.95557630
0.95486479
0.95415328
0.95344183
0.95273091
0.95201881
0.95130789
0.95059698
0.94988606
0.94917515
0.94846477
0.94775385
0.94704294
0.94633262
0.94562230
0.94491252
0.94420221
0.94349242
0.94278270
0.94207292
0.94136374
0.94065402
0.93994483
0.93923565
0.93852652
0.93781794
0.93710815
0.93639957
0.93569098
0.93498299
0.93427440
0.93356641
0.93285836
0.93215037
0.93144238
0.93073439
0.93002634
0.92931894
0.92861155
0.92790409
0.92719670
0.92648925
0.92578239
0.92507619
0.92436933
0.92366247
0.92295562
0.92224936
0.92154316
0.92083630
0.92013117
0.91942491
0.91871925
0.91801299
0.91730732
0.91660226
0.91589713
0.91519147
0.91448640
0.91378187
0.91307680
0.91237168
0.91166661
0.91096268
0.91025815
0.90955368
0.90884974
0.90814521
0.90744128
0.90673794
0.90603401
0.90532954
0.90462674
0.90392287
0.90321947
0.90251673
0.90181339
0.90111119
0.90040785
0.89970452
0.89900237
0.89829957
0.89759797
0.89689523
0.89619362
0.89549088
0.89478868
0.89408767
0.89338553
0.89268392
0.89198231
0.89128131
0.89057970
0.88987869
0.88917768
0.88847727
0.88777686
0.88707525
0.88637537
0.88567436
0.88497455
0.88427354
0.88357426
0.88287438
0.88217397
0.88147469
0.88077547
0.88007500
0.87937632
0.87867650
0.87797722
0.87727854
0.87657926
0.87588058
0.87518190
0.87448381
0.87378453
0.87308645
0.87238836
0.87168968
0.87099159
0.87029405
0.86959656
0.86889847
0.86820092
0.86750343
0.86680648
0.86610953
0.86541144
0.86471449
0.86401760
0.86332125
0.86262489
0.86192854
0.86123105
0.86053469
0.85983887
0.85914258
0.85844676
0.85775100
0.85705524
0.85636008
0.85566432
0.85496910
0.85427275
0.85357758
0.85288296
0.85218780
0.85149317
0.85079801
0.85010339
0.84940936
0.84871479
0.84802017
0.84732614
0.84663211
0.84593815
0.84524412
0.84455069
0.84385666
0.84316436
0.84247093
0.84177750
0.84108407
0.84039123
0.83969774
0.83900491
0.83831207
0.83761978
0.83692694
0.83623524
0.83554300
0.83485070
0.83415841
0.83346617
0.83277447
0.83208336
0.83139166
0.83069996
0.83000832
0.82931775
0.82862665
0.82793501
0.82724385
0.82655393
0.82586283
0.82517232
0.82448122
0.82379185
0.82310134
0.82241077
0.82172146
0.82103149
0.82034098
0.81965220
0.81896223
0.81827232
0.81758354
0.81689417
0.81620480
0.81551608
0.81482671
0.81413853
0.81344975
0.81276038
0.81207273
0.81138395
0.81069637
0.81000759
0.80932001
0.80863177
0.80794478
0.80725660
0.80656956
0.80588138
0.80519433
0.80450675
0.80382030
0.80313265
0.80244620
0.80175922
0.80107277
0.80038572
0.79969927
0.79901282
0.79832697
0.79764112
0.79695467
0.79626881
0.79558356
0.79489711
0.79421179
0.79352594
0.79284068
0.79215596
0.79147011
0.79078539
0.79010073
0.78941541
0.78873135
0.78804663
0.78736251
0.78667785
0.78599373
0.78530960
0.78462608
0.78394136
0.78325783
0.78257431
0.78189078
0.78120666
0.78052373
0.77984074
0.77915781
0.77847488
0.77779136
0.77710837
0.77642603
0.77574364
0.77506131
0.77437892
0.77369658
0.77301479
0.77233186
0.77165006
0.77096827
0.77028647
0.76960527
0.76892348
0.76824228
0.76756108
0.76687988
0.76619868
0.76551808
0.76483748
0.76415628
0.76347622
0.76279561
0.76211501
0.76143495
0.76075434
0.76007434
0.75939427
0.75871481
0.75803480
0.75735533
0.75667533
0.75599586
0.75531699
0.75463811
0.75395924
0.75327977
0.75260096
0.75192209
0.75124376
0.75056488
0.74988721
0.74920893
0.74853066
0.74785232
0.74717405
0.74649577
0.74581863
0.74514095
0.74446327
0.74378554
0.74310899
0.74243131
0.74175417
0.74107709
0.74040055
0.73972400
0.73904686
0.73837091
0.73769437
0.73701723
0.73634074
0.73566533
0.73498938
0.73431284
0.73363749
0.73296154
0.73228673
0.73161078
0.73093483
0.73026061
0.72958467
0.72891045
0.72823510
0.72755969
0.72688547
0.72621072
0.72553650
0.72486168
0.72418806
0.72351331
0.72283969
0.72216547
0.72149185
0.72081763
0.72014461
0.71947039
0.71879737
0.71812375
0.71745066
0.71677764
0.71610462
0.71543213
0.71475910
0.71408662
0.71341359
0.71274170
0.71206928
0.71139679
0.71072490
0.71005247
0.70938058
0.70870929
0.70803686
0.70736557
0.70669427
0.70602238
0.70535169
0.70468039
0.70400964
0.70333834
0.70266765
0.70199695
0.70132566
0.70065550
0.69998540
0.69931524
0.69864514
0.69797444
0.69730488
0.69663478
0.69596521
0.69529565
0.69462555
0.69395599
0.69328702
0.69261806
0.69194909
0.69128012
0.69061062
0.68994165
0.68927322
0.68860432
0.68793589
0.68726812
0.68659975
0.68593138
0.68526354
0.68459577
0.68392794
0.68326016
0.68259239
0.68192516
0.68125738
0.68059015
0.67992291
0.67925573
0.67858910
0.67792186
0.67725522
0.67658858
0.67592194
0.67525536
0.67458926
0.67392268
0.67325658
0.67259054
0.67192449
0.67125845
0.67059241
0.66992750
0.66926205
0.66859661
0.66793110
0.66726566
0.66660081
0.66593650
0.66527159
0.66460674
0.66394183
0.66327692
0.66261321
0.66194895
0.66128404
0.66061973
0.65995542
0.65929230
0.65862859
0.65796427
0.65730116
0.65663744
0.65597432
0.65531061
0.65464803
0.65398431
0.65332119
0.65265921
0.65199609
0.65133291
0.65067098
0.65000840
0.64934642
0.64868390
0.64802131
0.64735993
0.64669800
0.64603661
0.64537463
0.64471264
0.64405125
0.64338987
0.64272908
0.64206709
0.64140690
0.64074551
0.64008472
0.63942386
0.63876367
0.63810228
0.63744262
0.63678183
0.63612164
0.63546138
0.63480173
0.63414093
0.63348187
0.63282228
0.63216202
0.63150296
0.63084330
0.63018430
0.62952524
0.62886558
0.62820712
0.62754746
0.62688900
0.62623053
0.62557147
0.62491354
0.62425568
0.62359721
0.62293875
0.62228082
0.62162295
0.62096508
0.62030716
0.61964989
0.61899256
0.61833469
0.61767736
0.61702062
0.61636329
0.61570602
0.61504929
0.61439255
0.61373582
0.61307968
0.61242295
0.61176622
0.61111008
0.61045394
0.60979780
0.60914226
0.60848672
0.60783053
0.60717439
0.60651885
0.60586385
0.60520830
0.60455336
0.60389836
0.60324335
0.60258841
0.60193341
0.60127900
0.60062406
0.59996965
0.59931524
0.59866090
0.59800709
0.59735268
0.59669887
0.59604506
0.59539125
0.59473744
0.59408363
0.59343036
0.59277655
0.59212333
0.59147012
0.59081804
0.59016483
0.58951155
0.58885894
0.58820626
0.58755364
0.58690097
0.58624835
0.58559687
0.58494479
0.58429277
0.58364069
0.58298861
0.58233713
0.58168564
0.58103416
0.58038208
0.57973060
0.57908031
0.57842883
0.57777794
0.57712646
0.57647611
0.57582522
0.57517493
0.57452458
0.57387429
0.57322341
0.57257366
0.57192337
0.57127361
0.57062386
0.56997417
0.56932382
0.56867466
0.56802497
0.56737635
0.56672666
0.56607691
0.56542835
0.56477919
0.56413123
0.56348207
0.56283292
0.56218490
0.56153580
0.56088778
0.56023922
0.55959179
0.55894324
0.55829587
0.55764731
0.55699989
0.55635192
0.55570509
0.55505707
0.55441030
0.55376347
0.55311545
0.55246922
0.55182186
0.55117503
0.55052879
0.54988137
0.54923514
0.54858831
0.54794267
0.54729644
0.54665021
0.54600398
0.54535888
0.54471205
0.54406701
0.54342132
0.54277568
0.54213005
0.54148495
0.54084045
0.54019481
0.53954978
0.53890527
0.53826077
0.53761514
0.53697064
0.53632673
0.53568223
0.53503719
0.53439341
0.53374950
0.53310560
0.53246229
0.53181838
0.53117388
0.53053057
0.52988721
0.52924390
0.52860059
0.52795782
0.52731451
0.52667180
0.52602903
0.52538572
0.52474295
0.52410024
0.52345806
0.52281595
0.52217378
0.52153160
0.52088943
0.52024731
0.51960574
0.51896356
0.51832198
0.51768041
0.51703883
0.51639785
0.51575627
0.51511529
0.51447431
0.51383327
0.51319229
0.51255190
0.51191146
0.51127107
0.51063009
0.50998965
0.50934927
0.50870942
0.50806903
0.50742978
0.50678994
0.50615015
0.50551030
0.50487046
0.50423067
0.50359201
0.50295276
0.50231351
0.50167426
0.50103501
0.50039696
0.49975771
0.49911905
0.49848040
0.49784228
0.49720363
0.49656557
0.49592745
0.49528940
0.49465134
0.49401382
0.49337576
0.49273765
0.49210072
0.49146326
0.49082574
0.49018882
0.48955136
0.48891384
0.48827751
0.48764005
0.48700373
0.48636680
0.48572988
0.48509415
0.48445723
0.48382144
0.48318511
0.48254938
0.48191305
0.48127732
0.48064153
0.48000640
0.47937007
0.47873488
0.47809915
0.47746456
0.47682883
0.47619423
0.47555850
0.47492390
0.47428877
0.47365477
0.47302018
0.47238558
0.47175098
0.47111645
0.47048245
0.46984898
0.46921445
0.46858045
0.46794699
0.46731299
0.46667958
0.46604618
0.46541278
0.46477932
0.46414651
0.46351251
0.46288024
0.46224744
