corrn_curve_quadratic
1.63626465
1.63540915
1.63455250
1.63369703
1.63284041
1.63198505
1.63112964
1.63027431
1.62941894
1.62856358
1.62770949
1.62685423
1.62600017
1.62514488
1.62429086
1.62343685
1.62258286
1.62172888
1.62087611
1.62002217
1.61916949
1.61831559
1.61746412
1.61661143
1.61575882
1.61490617
1.61405353
1.61320215
1.61234961
1.61149827
1.61064694
1.60979563
1.60894434
1.60809307
1.60724299
1.60639175
1.60554177
1.60469181
1.60384062
1.60299063
1.60214072
1.60129200
1.60044207
1.59959221
1.59874354
1.59789490
1.59704627
1.59619642
1.59534907
1.59450049
1.59365193
1.59280463
1.59195611
1.59110878
1.59026153
1.58941430
1.58856702
1.58771982
1.58687258
1.58602542
1.58518069
1.58433350
1.58348757
1.58264165
1.58179458
1.58094994
1.58010407
1.57925947
1.57841364
1.57756900
1.57672445
1.57587991
1.57503533
1.57419082
1.57334634
1.57250305
1.57165853
1.57081534
1.56997210
1.56912888
1.56828449
1.56744248
1.56659937
1.56575622
1.56491309
1.56407120
1.56323052
1.56238743
1.56154560
1.56070379
1.55986194
1.55902133
1.55817958
1.55733901
1.55649852
1.55565737
1.55481686
1.55397698
1.55313594
1.55229671
1.55145689
1.55061769
1.54977728
1.54893813
1.54809893
1.54725918
1.54642070
1.54558217
1.54474433
1.54390584
1.54306680
1.54222896
1.54139119
1.54055400
1.53971621
1.53887843
1.53804129
1.53720423
1.53636768
1.53553121
1.53469476
1.53385709
1.53302129
1.53218489
1.53134906
1.53051393
1.52967813
1.52884304
1.52800790
1.52717283
1.52633773
1.52550326
1.52466818
1.52383319
1.52299877
1.52216498
1.52133060
1.52049685
1.51966311
1.51883001
1.51799625
1.51716319
1.51633131
1.51549828
1.51466582
1.51383344
1.51300102
1.51216868
1.51133629
1.51050453
1.50967286
1.50884113
1.50800943
1.50717836
1.50634793
1.50551745
1.50468643
1.50385543
1.50302506
1.50219471
1.50136555
1.50053524
1.49970549
1.49887583
1.49804612
1.49721766
1.49638805
1.49555901
1.49472999
1.49390104
1.49307322
1.49224487
1.49141653
1.49058944
1.48976114
1.48893347
1.48810581
1.48727873
1.48645173
1.48562413
1.48479771
1.48397070
1.48314438
1.48231863
1.48149167
1.48066658
1.47984033
1.47901403
1.47818899
1.47736334
1.47653771
1.47571334
1.47488774
1.47406395
1.47323839
1.47241470
1.47159034
1.47076669
1.46994181
1.46911874
1.46829445
1.46747141
1.46664784
1.46582545
1.46500185
1.46417949
1.46335592
1.46253422
1.46171130
1.46088963
1.46006674
1.45924573
1.45842404
1.45760182
1.45678085
1.45595922
1.45513829
1.45431792
1.45349640
1.45267607
1.45185637
1.45103546
1.45021580
1.44939615
1.44857535
1.44775635
1.44693675
1.44611717
1.44529816
1.44447923
1.44366093
1.44284141
1.44202309
1.44120484
1.44038716
1.43956833
1.43875068
1.43793305
1.43711544
1.43629729
1.43548033
1.43466339
1.43384646
1.43303016
1.43221327
1.43139639
1.43058014
1.42976391
1.42894825
1.42813267
1.42731705
1.42650150
1.42568591
1.42487101
1.42405489
1.42323997
1.42242567
1.42161078
1.42079658
1.41998233
1.41916872
1.41835451
1.41754093
1.41672730
1.41591376
1.41510022
1.41428733
1.41347383
1.41266090
1.41184867
1.41103577
1.41022357
1.40941133
1.40859916
1.40778695
1.40697598
1.40616442
1.40535287
1.40454134
1.40373044
1.40291956
1.40210808
1.40129723
1.40048762
1.39967742
1.39886717
1.39805700
1.39724685
1.39643665
1.39562832
1.39481821
1.39400930
1.39319984
1.39239034
1.39158270
1.39077385
1.38996507
1.38915625
1.38834868
1.38754051
1.38673235
1.38592538
1.38511787
1.38430976
1.38350346
1.38269600
1.38188911
1.38108291
1.38027605
1.37946927
1.37866306
1.37785687
1.37705076
1.37624521
1.37543906
1.37463417
1.37382867
1.37302257
1.37221834
1.37141289
1.37060863
1.36980383
1.36899966
1.36819489
1.36739069
1.36658718
1.36578301
1.36497954
1.36417540
1.36337252
1.36256909
1.36176623
1.36096401
1.36016057
1.35935838
1.35855558
1.35775342
1.35695128
1.35614976
1.35534820
1.35454549
1.35374464
1.35294258
1.35214169
1.35134145
1.35053943
1.34973921
1.34893901
1.34813765
1.34733810
1.34653795
1.34573725
1.34493775
1.34413881
1.34333817
1.34253932
1.34174043
1.34094162
1.34014221
1.33934343
1.33854522
1.33774708
1.33694773
1.33615018
1.33535204
1.33455458
1.33375708
1.33295836
1.33216157
1.33136412
1.33056729
1.32977048
1.32897431
1.32817692
1.32738016
1.32658403
1.32578785
1.32499237
1.32419628
1.32340077
1.32260533
1.32180985
1.32101506
1.32021900
1.31942424
1.31862943
1.31783465
1.31703993
1.31624579
1.31545167
1.31465755
1.31386346
1.31306999
1.31227654
1.31148311
1.31068963
1.30989623
1.30910346
1.30831125
1.30751913
1.30672634
1.30593363
1.30514149
1.30434942
1.30355731
1.30276522
1.30197375
1.30118237
1.30039155
1.29960013
1.29880934
1.29801796
1.29722720
1.29643646
1.29564690
1.29485681
1.29406611
1.29327599
1.29248594
1.29169707
1.29090767
1.29011761
1.28932823
1.28854004
1.28775064
1.28696187
1.28617311
1.28538498
1.28459687
1.28380822
1.28302069
1.28223263
1.28144458
1.28065777
1.27987030
1.27908230
1.27829615
1.27750873
1.27672139
1.27593523
1.27514853
1.27436301
1.27357628
1.27278963
1.27200416
1.27121809
1.27043326
1.26964722
1.26886243
1.26807704
1.26729227
1.26650691
1.26572279
1.26493801
1.26415392
1.26336923
1.26258573
1.26180107
1.26101759
1.26023358
1.25945014
1.25866616
1.25788336
1.25710118
1.25631719
1.25553505
1.25475169
1.25396958
1.25318810
1.25240480
1.25162335
1.25084068
1.25005920
1.24927841
1.24849641
1.24771497
1.24693423
1.24615282
1.24537210
1.24459134
1.24381121
1.24303054
1.24225044
1.24147035
1.24068967
1.23991022
1.23913080
1.23835138
1.23757199
1.23679199
1.23601324
1.23523450
1.23445633
1.23367762
1.23289831
1.23212019
1.23134214
1.23056404
1.22978657
1.22900857
1.22823052
1.22745310
1.22667575
1.22589897
1.22512160
1.22434485
1.22356811
1.22279201
1.22201531
1.22123917
1.22046311
1.21968706
1.21891159
1.21813496
1.21735957
1.21658414
1.21580878
1.21503338
1.21425867
1.21348452
1.21270978
1.21193505
1.21116095
1.21038686
1.20961224
1.20883873
1.20806469
1.20729066
1.20651726
1.20574388
1.20497051
1.20419716
1.20342498
1.20265227
1.20187952
1.20110683
1.20033472
1.19956207
1.19878998
1.19801853
1.19724653
1.19647511
1.19570308
1.19493168
1.19416153
1.19339016
1.19261881
1.19184808
1.19107792
1.19030723
1.18953716
1.18876649
1.18799701
1.18722698
1.18645698
1.18568815
1.18491811
1.18414876
1.18337997
1.18261059
1.18184189
1.18107370
1.18030443
1.17953572
1.17876824
1.17799956
1.17723212
1.17646408
1.17569600
1.17492860
1.17416122
1.17339440
1.17262705
1.17186032
1.17109294
1.17032624
1.16956011
1.16879283
1.16802734
1.16726064
1.16649518
1.16572857
1.16496370
1.16419773
1.16343233
1.16266749
1.16190212
1.16113738
1.16037204
1.15960793
1.15884262
1.15807849
1.15731498
1.15655032
1.15578629
1.15502222
1.15425883
1.15349539
1.15273136
1.15196857
1.15120585
1.15044247
1.14967973
1.14891760
1.14815427
1.14739218
1.14663010
1.14586803
1.14510537
1.14434389
1.14358248
1.14282102
1.14205903
1.14129828
1.14053748
1.13977669
1.13901598
1.13825461
1.13749393
1.13673382
1.13597372
1.13521363
1.13445295
1.13369350
1.13293346
1.13217404
1.13141525
1.13065587
1.12989704
1.12913768
1.12837834
1.12761962
1.12686092
1.12610278
1.12534466
1.12458661
1.12382851
1.12307104
1.12231304
1.12155560
1.12079817
1.12004076
1.11928398
1.11852666
1.11776984
1.11701310
1.11625637
1.11550027
1.11474357
1.11398750
1.11323138
1.11247533
1.11171991
1.11096506
1.11020961
1.10945423
1.10869881
1.10794346
1.10718868
1.10643391
1.10567922
1.10492509
1.10417098
1.10341627
1.10266219
1.10190812
1.10115406
1.10040124
1.09964776
1.09889436
1.09814097
1.09738876
1.09663540
1.09588261
1.09512928
1.09437773
1.09362504
1.09287230
1.09212025
1.09136877
1.09061668
1.08986522
1.08911378
1.08836235
1.08761093
1.08686014
1.08610875
1.08535799
1.08460786
1.08385712
1.08310640
1.08235625
1.08160617
1.08085665
1.08010660
1.07935711
1.07860709
1.07785763
1.07710879
1.07635881
1.07561062
1.07486121
1.07411305
1.07336367
1.07261614
1.07186741
1.07111930
1.07037120
1.06962373
1.06887505
1.06812816
1.06738012
1.06663331
1.06588646
1.06513846
1.06439225
1.06364489
1.06289871
1.06215254
1.06140522
1.06065969
1.05991295
1.05916745
1.05842196
1.05767532
1.05693041
1.05618496
1.05543953
1.05469472
1.05394992
1.05320453
1.05245977
1.05171556
1.05097143
1.05022610
1.04948255
1.04873840
1.04799494
1.04725021
1.04650732
1.04576390
1.04502044
1.04427759
1.04353354
1.04279134
1.04204854
1.04130575
1.04056359
1.03982144
1.03907808
1.03833657
1.03759440
1.03685292
1.03611145
1.03536993
1.03462849
1.03388700
1.03314620
1.03240413
1.03166335
1.03092314
1.03018233
1.02944215
1.02870143
1.02796127
1.02722174
1.02648161
1.02574204
1.02500200
1.02426246
1.02352300
1.02278416
1.02204472
1.02130585
1.02056705
1.01982826
1.01909065
1.01835183
1.01761370
1.01687552
1.01613741
1.01539926
1.01466173
1.01392366
1.01318616
1.01244983
1.01171242
1.01097550
1.01023812
1.00950129
1.00876442
1.00802885
1.00729207
1.00655591
1.00581970
1.00508357
1.00434800
1.00361251
1.00287635
1.00214089
1.00140598
1.00067054
0.99993567
0.99920141
0.99846656
0.99773112
0.99699690
0.99626270
0.99552852
0.99479435
0.99406080
0.99332665
0.99259374
0.99185963
0.99112607
0.99039320
0.98965973
0.98892622
0.98819400
0.98746112
0.98672887
0.98599608
0.98526446
0.98453170
0.98380011
0.98306792
0.98233575
0.98160420
0.98087266
0.98014175
0.97940963
0.97867935
0.97794787
0.97721762
0.97648732
0.97575588
0.97502628
0.97429541
0.97356523
0.97283506
0.97210546
0.97137586
0.97064573
0.96991678
0.96918661
0.96845775
0.96772883
0.96699932
0.96627104
0.96554277
0.96481330
0.96408506
0.96335744
0.96262862
0.96190096
0.96117339
0.96044460
0.95971766
0.95899006
0.95826315
0.95753497
0.95680808
0.95608176
0.95535483
0.95462738
0.95390109
0.95317482
0.95244862
0.95172298
0.95099614
0.95027053
0.94954493
0.94881935
0.94809378
0.94736877
0.94664323
0.94591770
0.94519279
0.94446789
0.94374356
0.94301869
0.94229439
0.94157015
0.94084587
0.94012222
0.93939802
0.93867439
0.93795077
0.93722723
0.93650425
0.93578006
0.93505710
0.93433416
0.93361184
0.93288892
0.93216663
0.93144429
0.93072202
0.92999976
0.92927752
0.92855523
0.92783363
0.92711203
0.92639039
0.92566883
0.92494721
0.92422622
0.92350591
0.92278494
0.92206399
0.92134305
0.92062273
0.91990249
0.91918159
0.91846247
0.91774220
0.91702256
0.91630232
0.91558270
0.91486371
0.91414466
0.91342508
0.91270613
0.91198773
0.91126880
0.91054982
0.90983092
0.90911318
0.90839485
0.90767660
0.90695890
0.90624061
0.90552294
0.90480589
0.90408825
0.90337007
0.90265361
0.90193607
0.90121902
0.90050266
0.89978571
0.89906992
0.89835299
0.89763607
0.89692038
0.89620404
0.89548892
0.89477267
0.89405758
0.89334135
0.89262568
0.89191124
0.89119565
0.89048063
0.88976562
0.88905123
0.88833624
0.88762188
0.88690753
0.88619380
0.88548008
0.88476516
0.88405202
0.88333773
0.88262468
0.88191042
0.88119793
0.88048485
0.87977124
0.87905880
0.87834642
0.87763279
0.87692099
0.87620805
0.87549567
0.87478391
0.87407156
0.87335982
0.87264810
0.87193700
0.87122470
0.87051362
0.86980256
0.86909090
0.86837987
0.86766939
0.86695899
0.86624799
0.86553755
0.86482719
0.86411739
0.86340759
0.86269666
0.86198690
0.86127720
0.86056807
0.85985895
0.85914984
0.85843960
0.85773051
0.85702199
0.85631300
0.85560450
0.85489608
0.85418767
0.85347988
0.85277150
0.85206367
0.85135470
0.85064697
0.84993979
0.84923207
0.84852492
0.84781723
0.84711011
0.84640360
0.84569656
0.84498947
0.84428300
0.84357654
0.84287016
0.84216372
0.84145791
0.84075151
0.84004688
0.83934110
0.83863534
0.83792959
0.83722447
0.83651868
0.83581358
0.83510849
0.83440396
0.83369889
0.83299500
0.83229056
0.83158608
0.83088162
0.83017722
0.82947339
0.82877017
0.82806636
0.82736256
0.82665884
0.82595622
0.82525307
0.82454938
0.82384620
0.82314430
0.82244119
0.82173871
0.82103563
0.82033433
0.81963189
0.81892939
0.81822819
0.81752633
0.81682393
0.81612331
0.81542149
0.81471974
0.81401916
0.81331798
0.81261681
0.81191633
0.81121519
0.81051527
0.80981476
0.80911366
0.80841433
0.80771386
0.80701461
0.80631417
0.80561495
0.80491507
0.80421649
0.80351670
0.80281807
0.80211831
0.80141971
0.80072058
0.80002261
0.79932344
0.79862550
0.79792702
0.79722910
0.79653059
0.79583270
0.79513482
0.79443756
0.79374031
0.79304247
0.79234524
0.79164864
0.79095083
0.79025419
0.78955702
0.78886046
0.78816446
0.78746733
0.78677136
0.78607546
0.78537890
0.78468363
0.78398771
0.78329241
0.78259657
0.78190129
0.78120602
0.78051138
0.77981553
0.77912090
0.77842629
0.77773169
0.77703650
0.77634253
0.77564852
0.77495457
0.77426064
0.77356612
0.77287215
0.77217886
0.77148553
0.77079226
0.77009895
0.76940571
0.76871303
0.76801921
0.76732656
0.76663391
0.76594128
0.76524927
0.76455666
0.76386467
0.76317270
0.76248073
0.76178878
0.76109745
0.76040613
0.75971421
0.75902346
0.75833218
0.75764090
0.75695019
0.75625894
0.75556831
0.75487763
0.75418757
0.75349698
0.75280694
0.75211638
0.75142636
0.75073697
0.75004759
0.74935822
0.74866826
0.74797898
0.74728964
0.74660087
0.74591156
0.74522348
0.74453480
0.74384613
0.74315742
0.74246878
0.74178015
0.74109268
0.74040469
0.73971670
0.73902866
0.73834185
0.73765390
0.73696651
0.73627919
0.73559242
0.73490567
0.73421833
0.73353221
0.73284549
0.73215818
0.73147155
0.73078602
0.73009996
0.72941331
0.72872788
0.72804185
0.72735699
0.72667099
0.72598500
0.72530078
0.72461482
0.72393062
0.72324528
0.72255990
0.72187574
0.72119105
0.72050691
0.71982218
0.71913867
0.71845403
0.71777054
0.71708647
0.71640301
0.71571896
0.71503613
0.71435210
0.71366929
0.71298589
0.71230305
0.71162028
0.71093752
0.71025532
0.70957259
0.70889041
0.70820770
0.70752615
0.70684407
0.70616194
0.70548043
0.70479838
0.70411689
0.70343602
0.70275401
0.70207316
0.70139233
0.70071090
0.70003069
0.69934989
0.69866965
0.69798887
0.69730871
0.69662857
0.69594782
0.69526825
0.69458874
0.69390918
0.69322970
0.69254962
0.69187071
0.69119126
0.69051237
0.68983349
0.68915408
0.68847522
0.68779698
0.68711876
0.68644054
0.68576234
0.68508360
0.68440542
0.68372780
0.68304970
0.68237210
0.68169518
0.68101767
0.68034016
0.67966321
0.67898634
0.67830941
0.67763256
0.67695572
0.67627944
0.67560262
0.67492636
0.67425011
0.67357393
0.67289831
0.67222210
0.67154650
0.67087091
0.67019534
0.66951984
0.66884483
0.66816935
0.66749437
0.66681946
0.66614456
0.66546968
0.66479480
0.66412108
0.66344684
0.66277260
0.66209832
0.66142410
0.66075051
0.66007747
0.65940383
0.65873027
0.65805666
0.65738306
0.65671069
0.65603778
0.65536421
0.65469127
0.65401833
0.65334662
0.65267431
0.65200141
0.65132973
0.65065745
0.64998580
0.64931355
0.64864246
0.64797023
0.64729862
0.64662817
0.64595658
0.64528495
0.64461459
0.64394358
0.64327319
0.64260226
0.64193129
0.64126154
0.64059125
0.63992152
0.63925119
0.63858088
0.63791119
0.63724150
0.63657243
0.63590217
0.63523373
0.63456409
0.63389506
0.63322599
0.63255760
0.63188801
0.63122018
0.63055121
0.62988286
0.62921446
0.62854668
0.62787776
0.62721060
0.62654292
0.62587458
0.62520745
0.62453974
0.62387270
0.62320562
0.62253794
0.62187148
0.62120382
0.62053738
0.61987096
0.61920394
0.61853808
0.61787229
0.61720591
0.61653954
0.61587373
0.61520799
0.61454226
0.61387648
0.61321137
0.61254622
0.61188053
0.61121540
0.61055089
0.60988578
0.60922075
0.60855627
0.60789180
0.60722734
0.60656350
0.60589906
0.60523464
0.60457083
0.60390703
0.60324325
0.60258007
0.60191692
0.60125310
0.60058936
0.59992624
0.59926367
0.59860056
0.59793807
0.59727554
0.59661301
0.59595056
0.59528806
0.59462617
0.59396375
0.59330188
0.59264003
0.59197824
0.59131702
0.59065520
0.58999399
0.58933280
0.58867161
0.58801044
0.58734928
0.58668867
0.58602754
0.58536701
0.58470650
0.58404715
0.58338666
0.58272612
0.58206625
0.58140634
0.58074650
0.58008661
0.57942679
0.57876813
0.57810888
0.57744970
0.57679046
0.57613124
0.57547264
0.57481405
0.57415546
0.57349629
0.57283773
0.57218038
0.57152185
0.57086392
0.57020541
0.56954805
0.56889016
0.56823288
0.56757556
0.56691830
0.56626046
0.56560377
0.56494655
0.56428988
0.56363323
0.56297665
0.56231941
0.56166339
0.56100684
0.56035139
0.55969486
0.55903828
0.55838292
0.55772697
0.55707224
0.55641631
0.55576039
0.55510563
0.55444979
0.55379505
0.55313978
0.55248567
0.55183042
0.55117639
0.55052116
0.54986709
0.54921249
0.54855904
0.54790440
0.54725104
0.54659763
0.54594302
0.54529023
0.54463631
0.54398294
0.54333019
0.54267624
0.54202351
0.54137018
0.54071808
0.54006538
0.53941269
0.53876001
0.53810849
0.53745523
0.53680379
0.53615170
0.53549968
0.53484768
0.53419622
0.53354538
0.53289340
0.53224204
0.53159123
0.53094044
0.53028850
0.52963773
0.52898757
0.52833681
0.52768553
0.52703552
0.52638540
0.52573529
0.52508580
0.52443571
0.52378504
0.52313558
0.52248606
0.52183662
0.52118720
0.52053832
0.51988891
0.51924012
0.51859128
0.51794190
0.51729308
0.51664433
0.51599614
0.51534801
0.51469984
0.51405167
0.51340352
0.51275544
0.51210791
0.51145979
0.51081228
0.51016478
0.50951730
0.50887042
0.50822296
0.50757611
0.50692927
0.50628238
0.50563556
0.50498935
0.50434310
0.50369691
0.50305014
0.50240392
0.50175777
0.50111217
0.50046604
0.49982106
0.49917550
0.49853000
0.49788446
0.49723892
0.49659346
0.49594915
0.49530425
0.49465936
0.49401448
0.49336962
0.49272596
0.49208112
0.49143689
0.49079266
0.49014899
0.48950479
0.48886120
0.48821757
0.48757400
0.48693044
0.48628744
0.48564391
0.48500032
0.48435795
0.48371505
0.48307210
0.48242977
0.48178690
0.48114398
0.48050228
0.47985944
0.47921776
0.47857549
0.47793322
0.47729218
0.47664993
0.47600885
0.47536723
0.47472622
0.47408463
0.47344364
0.47280261
0.47216225
0.47152069
0.47088029
0.47023936
0.46959959
0.46895868
0.46831892
0.46767803
0.46703830
0.46639803
0.46575892
0.46511922
0.46447953
0.46383984
0.46320023
0.46256117
0.46192267
0.46128309
0.46064406
0.46000559
0.45936658
0.45872819
0.45808980
0.45745143
0.45681301
0.45617526
0.45553632
0.45489913
0.45426141
