corrn_curve_cubic
1.63278113
1.63194094
1.63109957
1.63025933
1.62941791
1.62857768
1.62773737
1.62689710
1.62605675
1.62521638
1.62437720
1.62353684
1.62269761
1.62185714
1.62101788
1.62017858
1.61933927
1.61849993
1.61766173
1.61682235
1.61598417
1.61514474
1.61430767
1.61346936
1.61263109
1.61179274
1.61095436
1.61011718
1.60927883
1.60844160
1.60760436
1.60676710
1.60592981
1.60509251
1.60425634
1.60341899
1.60258284
1.60174666
1.60090925
1.60007298
1.59923674
1.59840165
1.59756531
1.59672901
1.59589385
1.59505867
1.59422347
1.59338703
1.59255301
1.59171775
1.59088247
1.59004838
1.58921306
1.58837888
1.58754474
1.58671057
1.58587633
1.58504213
1.58420784
1.58337360
1.58254172
1.58170738
1.58087423
1.58004107
1.57920673
1.57837475
1.57754153
1.57670951
1.57587625
1.57504413
1.57421205
1.57337995
1.57254778
1.57171564
1.57088349
1.57005247
1.56922022
1.56838923
1.56755816
1.56672707
1.56589481
1.56506484
1.56423376
1.56340259
1.56257141
1.56174143
1.56091259
1.56008136
1.55925132
1.55842127
1.55759114
1.55676221
1.55593210
1.55510314
1.55427421
1.55344460
1.55261559
1.55178716
1.55095756
1.55012971
1.54930123
1.54847334
1.54764422
1.54681630
1.54598830
1.54515973
1.54433237
1.54350493
1.54267814
1.54185067
1.54102263
1.54019573
1.53936887
1.53854255
1.53771560
1.53688864
1.53606226
1.53523594
1.53441008
1.53358427
1.53275844
1.53193138
1.53110613
1.53028025
1.52945491
1.52863022
1.52780484
1.52698012
1.52615532
1.52533057
1.52450574
1.52368151
1.52285665
1.52203183
1.52120755
1.52038386
1.51955955
1.51873583
1.51791209
1.51708895
1.51626513
1.51544196
1.51461993
1.51379673
1.51297407
1.51215145
1.51132875
1.51050610
1.50968337
1.50886124
1.50803916
1.50721700
1.50639482
1.50557324
1.50475226
1.50393120
1.50310958
1.50228794
1.50146690
1.50064584
1.49982593
1.49900485
1.49818430
1.49736379
1.49654322
1.49572384
1.49490330
1.49408329
1.49326327
1.49244329
1.49162440
1.49080495
1.48998548
1.48916722
1.48834772
1.48752883
1.48670991
1.48589154
1.48507321
1.48425426
1.48343645
1.48261802
1.48180025
1.48098302
1.48016455
1.47934790
1.47853008
1.47771218
1.47689550
1.47607818
1.47526086
1.47444474
1.47362739
1.47281180
1.47199443
1.47117887
1.47036263
1.46954705
1.46873023
1.46791518
1.46709889
1.46628381
1.46546817
1.46465367
1.46383794
1.46302343
1.46220767
1.46139374
1.46057858
1.45976462
1.45894943
1.45813607
1.45732202
1.45650740
1.45569400
1.45487991
1.45406649
1.45325360
1.45243954
1.45162663
1.45081432
1.45000077
1.44918844
1.44837610
1.44756258
1.44675082
1.44593845
1.44512606
1.44431421
1.44350241
1.44269121
1.44187878
1.44106749
1.44025626
1.43944557
1.43863370
1.43782299
1.43701227
1.43620153
1.43539024
1.43458009
1.43376994
1.43295977
1.43215021
1.43134002
1.43052983
1.42972023
1.42891063
1.42810156
1.42729255
1.42648346
1.42567443
1.42486532
1.42405688
1.42324721
1.42243869
1.42163076
1.42082222
1.42001434
1.41920639
1.41839905
1.41759108
1.41678371
1.41597628
1.41516889
1.41436150
1.41355470
1.41274729
1.41194042
1.41113421
1.41032732
1.40952110
1.40871480
1.40790856
1.40710224
1.40629714
1.40549142
1.40468569
1.40387996
1.40307482
1.40226968
1.40146392
1.40065876
1.39985481
1.39905025
1.39824561
1.39744103
1.39663644
1.39583178
1.39502895
1.39422433
1.39342087
1.39261685
1.39181276
1.39101050
1.39020701
1.38940357
1.38860006
1.38779777
1.38699486
1.38619194
1.38539017
1.38458785
1.38378491
1.38298373
1.38218139
1.38137958
1.38057845
1.37977663
1.37897487
1.37817365
1.37737242
1.37657125
1.37577062
1.37496937
1.37416934
1.37336869
1.37256742
1.37176798
1.37096731
1.37016779
1.36936772
1.36856825
1.36776816
1.36696862
1.36616974
1.36537019
1.36457130
1.36377173
1.36297338
1.36217447
1.36137611
1.36057835
1.35977936
1.35898159
1.35818321
1.35738542
1.35658763
1.35579045
1.35499320
1.35419478
1.35339820
1.35260038
1.35180372
1.35100766
1.35020983
1.34941376
1.34861769
1.34782045
1.34702498
1.34622889
1.34543224
1.34463676
1.34384181
1.34304515
1.34225026
1.34145530
1.34066040
1.33986488
1.33906997
1.33827561
1.33748130
1.33668576
1.33589199
1.33509760
1.33430388
1.33351010
1.33271509
1.33192197
1.33112817
1.33033498
1.32954179
1.32874920
1.32795538
1.32716217
1.32636957
1.32557691
1.32478491
1.32399230
1.32320023
1.32240822
1.32161614
1.32082474
1.32003204
1.31924063
1.31844915
1.31765767
1.31686624
1.31607536
1.31528448
1.31449359
1.31370270
1.31291242
1.31212213
1.31133184
1.31054149
1.30975119
1.30896150
1.30817236
1.30738328
1.30659352
1.30580382
1.30501467
1.30422557
1.30343641
1.30264725
1.30185869
1.30107020
1.30028225
1.29949368
1.29870573
1.29791716
1.29712920
1.29634124
1.29555444
1.29476708
1.29397911
1.29319168
1.29240432
1.29161812
1.29083136
1.29004393
1.28925716
1.28847156
1.28768473
1.28689852
1.28611229
1.28532668
1.28454107
1.28375490
1.28296984
1.28218422
1.28139860
1.28061420
1.27982912
1.27904350
1.27825970
1.27747462
1.27668960
1.27590574
1.27512133
1.27433808
1.27355360
1.27276918
1.27198593
1.27120206
1.27041941
1.26963554
1.26885289
1.26806963
1.26728698
1.26650371
1.26572167
1.26493895
1.26415691
1.26337425
1.26259275
1.26181009
1.26102859
1.26024654
1.25946504
1.25868299
1.25790210
1.25712182
1.25633971
1.25555943
1.25477792
1.25399764
1.25321797
1.25243646
1.25165679
1.25087590
1.25009616
1.24931710
1.24853682
1.24775708
1.24697802
1.24619829
1.24541923
1.24464010
1.24386159
1.24308253
1.24230402
1.24152551
1.24074638
1.23996848
1.23919058
1.23841268
1.23763479
1.23685627
1.23607899
1.23530170
1.23452497
1.23374768
1.23296978
1.23219305
1.23141638
1.23063965
1.22986353
1.22908686
1.22831012
1.22753401
1.22675795
1.22598245
1.22520633
1.22443083
1.22365532
1.22288043
1.22210493
1.22132999
1.22055510
1.21978021
1.21900588
1.21823038
1.21745611
1.21668178
1.21590752
1.21513319
1.21435954
1.21358644
1.21281272
1.21203901
1.21126592
1.21049282
1.20971918
1.20894664
1.20817355
1.20740046
1.20662798
1.20585551
1.20508304
1.20431057
1.20353926
1.20276741
1.20199550
1.20122365
1.20045235
1.19968050
1.19890921
1.19813853
1.19736730
1.19659663
1.19582534
1.19505467
1.19428523
1.19351456
1.19274390
1.19197385
1.19120435
1.19043431
1.18966488
1.18889484
1.18812596
1.18735654
1.18658712
1.18581887
1.18504939
1.18428059
1.18351235
1.18274349
1.18197531
1.18120763
1.18043884
1.17967061
1.17890360
1.17813538
1.17736838
1.17660077
1.17583311
1.17506612
1.17429913
1.17353270
1.17276572
1.17199936
1.17123232
1.17046596
1.16970016
1.16893320
1.16816801
1.16740161
1.16663643
1.16587010
1.16510548
1.16433976
1.16357460
1.16280999
1.16204483
1.16128029
1.16051515
1.15975123
1.15898609
1.15822211
1.15745876
1.15669424
1.15593034
1.15516638
1.15440310
1.15363976
1.15287582
1.15211310
1.15135045
1.15058713
1.14982443
1.14906234
1.14829903
1.14753696
1.14677488
1.14601281
1.14525013
1.14448862
1.14372718
1.14296568
1.14220363
1.14144281
1.14068194
1.13992107
1.13916026
1.13839879
1.13763800
1.13687776
1.13611753
1.13535730
1.13459646
1.13383685
1.13307664
1.13231704
1.13155806
1.13079848
1.13003945
1.12927987
1.12852030
1.12776135
1.12700240
1.12624401
1.12548562
1.12472730
1.12396892
1.12321116
1.12245286
1.12169511
1.12093737
1.12017964
1.11942252
1.11866485
1.11790768
1.11715058
1.11639349
1.11563701
1.11487993
1.11412346
1.11336694
1.11261048
1.11185465
1.11109937
1.11034348
1.10958766
1.10883179
1.10807598
1.10732073
1.10656549
1.10581032
1.10505570
1.10430108
1.10354587
1.10279127
1.10203667
1.10128209
1.10052873
1.09977471
1.09902075
1.09826680
1.09751402
1.09676009
1.09600671
1.09525279
1.09450065
1.09374735
1.09299400
1.09224133
1.09148921
1.09073649
1.08998439
1.08923230
1.08848021
1.08772813
1.08697667
1.08622461
1.08547316
1.08472234
1.08397090
1.08321948
1.08246861
1.08171781
1.08096757
1.08021679
1.07946656
1.07871579
1.07796558
1.07721599
1.07646525
1.07571628
1.07496610
1.07421715
1.07346698
1.07271866
1.07196912
1.07122020
1.07047129
1.06972300
1.06897349
1.06822577
1.06747689
1.06672924
1.06598154
1.06523268
1.06448560
1.06373738
1.06299032
1.06224327
1.06149506
1.06074864
1.06000100
1.05925460
1.05850820
1.05776065
1.05701482
1.05626844
1.05552208
1.05477634
1.05403060
1.05328426
1.05253854
1.05179338
1.05104829
1.05030199
1.04955746
1.04881234
1.04806789
1.04732217
1.04657830
1.04583388
1.04508941
1.04434556
1.04360049
1.04285727
1.04211345
1.04136963
1.04062644
1.03988325
1.03913886
1.03839630
1.03765308
1.03691054
1.03616802
1.03542544
1.03468293
1.03394037
1.03319849
1.03245533
1.03171347
1.03097217
1.03023027
1.02948898
1.02874716
1.02800590
1.02726525
1.02652401
1.02578332
1.02504216
1.02430149
1.02356090
1.02282093
1.02208035
1.02134034
1.02060039
1.01986046
1.01912169
1.01838172
1.01764242
1.01690308
1.01616381
1.01542448
1.01468578
1.01394653
1.01320785
1.01247034
1.01173174
1.01099363
1.01025505
1.00951703
1.00877896
1.00804218
1.00730419
1.00656682
1.00582940
1.00509205
1.00435527
1.00361855
1.00288117
1.00214448
1.00140834
1.00067167
0.99993556
0.99920007
0.99846397
0.99772728
0.99699182
0.99625637
0.99552094
0.99478551
0.99405070
0.99331530
0.99258113
0.99184574
0.99111092
0.99037678
0.98964204
0.98890725
0.98817376
0.98743960
0.98670607
0.98597200
0.98523909
0.98450504
0.98377217
0.98303869
0.98230522
0.98157238
0.98083954
0.98010733
0.97937391
0.97864233
0.97790955
0.97717799
0.97644639
0.97571364
0.97498273
0.97425055
0.97351905
0.97278757
0.97205664
0.97132573
0.97059428
0.96986401
0.96913252
0.96840233
0.96767209
0.96694125
0.96621164
0.96548204
0.96475124
0.96402167
0.96329272
0.96256256
0.96183358
0.96110466
0.96037454
0.95964627
0.95891733
0.95818908
0.95745955
0.95673133
0.95600366
0.95527540
0.95454659
0.95381896
0.95309135
0.95236380
0.95163682
0.95090863
0.95018168
0.94945473
0.94872780
0.94800088
0.94727453
0.94654763
0.94582075
0.94509450
0.94436825
0.94364257
0.94291635
0.94219069
0.94146511
0.94073948
0.94001447
0.93928893
0.93856394
0.93783897
0.93711408
0.93638975
0.93566421
0.93493990
0.93421561
0.93349194
0.93276767
0.93204403
0.93132034
0.93059672
0.92987312
0.92914953
0.92842589
0.92770293
0.92697999
0.92625701
0.92553409
0.92481113
0.92408880
0.92336714
0.92264483
0.92192254
0.92120025
0.92047860
0.91975701
0.91903477
0.91831431
0.91759271
0.91687173
0.91615015
0.91542920
0.91470887
0.91398849
0.91326758
0.91254729
0.91182757
0.91110731
0.91038700
0.90966677
0.90894771
0.90822806
0.90750848
0.90678946
0.90606985
0.90535087
0.90463250
0.90391354
0.90319405
0.90247628
0.90175742
0.90103907
0.90032140
0.89960314
0.89888605
0.89816781
0.89744959
0.89673260
0.89601496
0.89529855
0.89458100
0.89386462
0.89314710
0.89243014
0.89171441
0.89099754
0.89028124
0.88956495
0.88884928
0.88813302
0.88741738
0.88670176
0.88598676
0.88527178
0.88455559
0.88384119
0.88312564
0.88241133
0.88169581
0.88098207
0.88026774
0.87955288
0.87883919
0.87812558
0.87741070
0.87669766
0.87598349
0.87526987
0.87455688
0.87384330
0.87313034
0.87241740
0.87170508
0.87099156
0.87027927
0.86956700
0.86885413
0.86814189
0.86743021
0.86671861
0.86600642
0.86529479
0.86458323
0.86387224
0.86316127
0.86244915
0.86173821
0.86102734
0.86031704
0.85960675
0.85889648
0.85818507
0.85747483
0.85676515
0.85605501
0.85534536
0.85463580
0.85392625
0.85321732
0.85250780
0.85179885
0.85108875
0.85037989
0.84967160
0.84896277
0.84825450
0.84754571
0.84683747
0.84612987
0.84542173
0.84471354
0.84400598
0.84329844
0.84259098
0.84188347
0.84117658
0.84046911
0.83976341
0.83905658
0.83834976
0.83764296
0.83693678
0.83622995
0.83552381
0.83481768
0.83411212
0.83340603
0.83270111
0.83199566
0.83129016
0.83058468
0.82987928
0.82917445
0.82847024
0.82776543
0.82706065
0.82635594
0.82565234
0.82494822
0.82424356
0.82353941
0.82283655
0.82213249
0.82142906
0.82072504
0.82002279
0.81931941
0.81861599
0.81791386
0.81721107
0.81650776
0.81580623
0.81510350
0.81440085
0.81369937
0.81299730
0.81229525
0.81159388
0.81089186
0.81019108
0.80948970
0.80878774
0.80808755
0.80738623
0.80668614
0.80598485
0.80528480
0.80458410
0.80388469
0.80318408
0.80248464
0.80178407
0.80108467
0.80038474
0.79968598
0.79898603
0.79828731
0.79758806
0.79688937
0.79619010
0.79549145
0.79479282
0.79409481
0.79339682
0.79269825
0.79200029
0.79130297
0.79060445
0.78990710
0.78920922
0.78851196
0.78781528
0.78711745
0.78642080
0.78572423
0.78502700
0.78433107
0.78363450
0.78293854
0.78224206
0.78154615
0.78085025
0.78015498
0.77945851
0.77876327
0.77806806
0.77737286
0.77667707
0.77598252
0.77528792
0.77459341
0.77389891
0.77320382
0.77250930
0.77181547
0.77112159
0.77042779
0.76973396
0.76904020
0.76834700
0.76765267
0.76695952
0.76626638
0.76557326
0.76488077
0.76418769
0.76349523
0.76280280
0.76211038
0.76141798
0.76072621
0.76003446
0.75934212
0.75865095
0.75795926
0.75726758
0.75657647
0.75588483
0.75519382
0.75450277
0.75381234
0.75312139
0.75243100
0.75174008
0.75104973
0.75036001
0.74967030
0.74898062
0.74829035
0.74760076
0.74691114
0.74622207
0.74553249
0.74484413
0.74415519
0.74346627
0.74277730
0.74208842
0.74139956
0.74071187
0.74002365
0.73933545
0.73864721
0.73796021
0.73727207
0.73658450
0.73589700
0.73521008
0.73452317
0.73383568
0.73314942
0.73246257
0.73177513
0.73108839
0.73040275
0.72971659
0.72902984
0.72834433
0.72765823
0.72697330
0.72628724
0.72560120
0.72491693
0.72423093
0.72354671
0.72286136
0.72217596
0.72149180
0.72080711
0.72012299
0.71943829
0.71875481
0.71807020
0.71738677
0.71670275
0.71601936
0.71533538
0.71465263
0.71396869
0.71328599
0.71260270
0.71191997
0.71123733
0.71055470
0.70987264
0.70919006
0.70850805
0.70782551
0.70714413
0.70646224
0.70578031
0.70509900
0.70441717
0.70373590
0.70305526
0.70237349
0.70169289
0.70101232
0.70033115
0.69965122
0.69897071
0.69829076
0.69761029
0.69693044
0.69625062
0.69557021
0.69489097
0.69421181
0.69353261
0.69285350
0.69217380
0.69149527
0.69081622
0.69013774
0.68945927
0.68878028
0.68810186
0.68742407
0.68674629
0.68606854
0.68539081
0.68471255
0.68403486
0.68335774
0.68268015
0.68200307
0.68132668
0.68064970
0.67997274
0.67929635
0.67862005
0.67794370
0.67726744
0.67659119
0.67591551
0.67523931
0.67456368
0.67388807
0.67321254
0.67253757
0.67186203
0.67118710
0.67051220
0.66983733
0.66916253
0.66848824
0.66781349
0.66713924
0.66646508
0.66579094
0.66511682
0.66444272
0.66376979
0.66309634
0.66242291
0.66174945
0.66107606
0.66040330
0.65973111
0.65905834
0.65838565
0.65771292
0.65704021
0.65636873
0.65569673
0.65502409
0.65435208
0.65368008
0.65300932
0.65233798
0.65166605
0.65099535
0.65032408
0.64965343
0.64898219
0.64831213
0.64764094
0.64697038
0.64630099
0.64563047
0.64495992
0.64429065
0.64362075
0.64295147
0.64228167
0.64161183
0.64094322
0.64027409
0.63960553
0.63893638
0.63826726
0.63759877
0.63693029
0.63626245
0.63559342
0.63492622
0.63425784
0.63359008
0.63292229
0.63225518
0.63158689
0.63092038
0.63025273
0.62958572
0.62891867
0.62825224
0.62758469
0.62691891
0.62625262
0.62558568
0.62491997
0.62425368
0.62358808
0.62292244
0.62225622
0.62159123
0.62092506
0.62026012
0.61959519
0.61892969
0.61826536
0.61760111
0.61693629
0.61627148
0.61560724
0.61494309
0.61427896
0.61361479
0.61295130
0.61228779
0.61162375
0.61096027
0.61029743
0.60963400
0.60897066
0.60830788
0.60764513
0.60698240
0.60632030
0.60565762
0.60499496
0.60433292
0.60367091
0.60300893
0.60234757
0.60168623
0.60102426
0.60036237
0.59970110
0.59904040
0.59837919
0.59771859
0.59705797
0.59639736
0.59573684
0.59507629
0.59441635
0.59375591
0.59309602
0.59243616
0.59177639
0.59111718
0.59045739
0.58979823
0.58913909
0.58847998
0.58782089
0.58716183
0.58650333
0.58584431
0.58518592
0.58452755
0.58387035
0.58321203
0.58255367
0.58189601
0.58123830
0.58058068
0.57992302
0.57926545
0.57860905
0.57795206
0.57729516
0.57663823
0.57598132
0.57532504
0.57466878
0.57401254
0.57335573
0.57269954
0.57204458
0.57138845
0.57073294
0.57007685
0.56942193
0.56876649
0.56811167
0.56745683
0.56680206
0.56614672
0.56549255
0.56483786
0.56418373
0.56352963
0.56287562
0.56222097
0.56156754
0.56091360
0.56026077
0.55960688
0.55895295
0.55830025
0.55764697
0.55699492
0.55634170
0.55568849
0.55503646
0.55438337
0.55373138
0.55307888
0.55242754
0.55177509
0.55112386
0.55047146
0.54982023
0.54916848
0.54851789
0.54786613
0.54721565
0.54656514
0.54591346
0.54526360
0.54461262
0.54396221
0.54331243
0.54266147
0.54201173
0.54136142
0.54071234
0.54006268
0.53941304
0.53876344
0.53811499
0.53746484
0.53681650
0.53616753
0.53551865
0.53486980
0.53422151
0.53357384
0.53292506
0.53227690
0.53162931
0.53098175
0.53033307
0.52968556
0.52903867
0.52839121
0.52774323
0.52709654
0.52644975
0.52580299
0.52515685
0.52451014
0.52386286
0.52321680
0.52257071
0.52192470
0.52127872
0.52063330
0.51998737
0.51934207
0.51869673
0.51805087
0.51740559
0.51676038
0.51611575
0.51547119
0.51482661
0.51418205
0.51353751
0.51289307
0.51224918
0.51160473
0.51096090
0.51031709
0.50967331
0.50903016
0.50838643
0.50774333
0.50710025
0.50645714
0.50581411
0.50517171
0.50452928
0.50388693
0.50324401
0.50260166
0.50195939
0.50131768
0.50067547
0.50003441
0.49939279
0.49875125
0.49810967
0.49746813
0.49682667
0.49618637
0.49554550
0.49490466
0.49426384
0.49362305
0.49298348
0.49234274
0.49170263
0.49106254
0.49042302
0.48978298
0.48914357
0.48850413
0.48786477
0.48722544
0.48658668
0.48594740
0.48530809
0.48467000
0.48403140
0.48339277
0.48275476
0.48211624
0.48147769
0.48084036
0.48020192
0.47956464
0.47892679
0.47828897
0.47765237
0.47701460
0.47637799
0.47574088
0.47510438
0.47446732
0.47383088
0.47319441
0.47255862
0.47192166
0.47128587
0.47064956
0.47001442
0.46937817
0.46874308
0.46810688
0.46747184
0.46683630
0.46620191
0.46556696
0.46493203
0.46429713
0.46366231
0.46302806
0.46239438
0.46175965
0.46112548
0.46049187
0.45985776
0.45922427
0.45859080
0.45795737
0.45732390
0.45669111
0.45605716
0.45542497
0.45479226
