corrn_curve_quartic
1.87367854
1.87115039
1.86862437
1.86610743
1.86359261
1.86108702
1.85858681
1.85609235
1.85360325
1.85111970
1.84864528
1.84617297
1.84370956
1.84124810
1.83879569
1.83634876
1.83390730
1.83147130
1.82904411
1.82661901
1.82420286
1.82178862
1.81938661
1.81698651
1.81459197
1.81220264
1.80981869
1.80744355
1.80507049
1.80270605
1.80034693
1.79799313
1.79564465
1.79330147
1.79096681
1.78863421
1.78631027
1.78399158
1.78167478
1.77936642
1.77706347
1.77476892
1.77247623
1.77018892
1.76790997
1.76563619
1.76336759
1.76110085
1.75884586
1.75659272
1.75434472
1.75210512
1.74986737
1.74763782
1.74541353
1.74319433
1.74098004
1.73877098
1.73656682
1.73436787
1.73218021
1.72999118
1.72781036
1.72563454
1.72346072
1.72129807
1.71913724
1.71698453
1.71483363
1.71269067
1.71055281
1.70841988
1.70629171
1.70416862
1.70205044
1.69994009
1.69783153
1.69573110
1.69363537
1.69154449
1.68945556
1.68737728
1.68530107
1.68322954
1.68116283
1.67910394
1.67705271
1.67500037
1.67295582
1.67091604
1.66888086
1.66685341
1.66482787
1.66280987
1.66079674
1.65878668
1.65678280
1.65478508
1.65278925
1.65080234
1.64881863
1.64684102
1.64486514
1.64289680
1.64093294
1.63897240
1.63701935
1.63507075
1.63312831
1.63118887
1.62925271
1.62732383
1.62539963
1.62348125
1.62156599
1.61965525
1.61775043
1.61585026
1.61395570
1.61206576
1.61018030
1.60829653
1.60642139
1.60454931
1.60268292
1.60082247
1.59896493
1.59711331
1.59526595
1.59342313
1.59158456
1.58975172
1.58792190
1.58609658
1.58427682
1.58246275
1.58065167
1.57884626
1.57704516
1.57524970
1.57345707
1.57167020
1.56989011
1.56811177
1.56633889
1.56457038
1.56280599
1.56104596
1.55929004
1.55753963
1.55579356
1.55405156
1.55231375
1.55058142
1.54885454
1.54713169
1.54541185
1.54369615
1.54198587
1.54027972
1.53858009
1.53688217
1.53518949
1.53350103
1.53181653
1.53013860
1.52846238
1.52679133
1.52512434
1.52346152
1.52180495
1.52015130
1.51850166
1.51685849
1.51521686
1.51358044
1.51194801
1.51032064
1.50869736
1.50707682
1.50546253
1.50385097
1.50224466
1.50064335
1.49904356
1.49745125
1.49586058
1.49427367
1.49269302
1.49111505
1.48954095
1.48797304
1.48640664
1.48484747
1.48328874
1.48173732
1.48018843
1.47864461
1.47710229
1.47556709
1.47403336
1.47250570
1.47098077
1.46946176
1.46794422
1.46643268
1.46492260
1.46341963
1.46191812
1.46042256
1.45892845
1.45744138
1.45595675
1.45447479
1.45299872
1.45152508
1.45005630
1.44859214
1.44712953
1.44567261
1.44422040
1.44276961
1.44132458
1.43988314
1.43844322
1.43701001
1.43557928
1.43415210
1.43272943
1.43131040
1.42989597
1.42848293
1.42707542
1.42567152
1.42427206
1.42287409
1.42148160
1.42009258
1.41870702
1.41732397
1.41594636
1.41457218
1.41320143
1.41183514
1.41047123
1.40911072
1.40775465
1.40640196
1.40505357
1.40370866
1.40236701
1.40102882
1.39969387
1.39836338
1.39703422
1.39571029
1.39439068
1.39307338
1.39176048
1.39045077
1.38914534
1.38784219
1.38654331
1.38524758
1.38395521
1.38266609
1.38138118
1.38009853
1.37881998
1.37754570
1.37627357
1.37500571
1.37374093
1.37247944
1.37122103
1.36996769
1.36871656
1.36746858
1.36622374
1.36498299
1.36374537
1.36250993
1.36127854
1.36005213
1.35882787
1.35760662
1.35638854
1.35517354
1.35396151
1.35275530
1.35154948
1.35034845
1.34914963
1.34795375
1.34676361
1.34557467
1.34438883
1.34320590
1.34202776
1.34085171
1.33967863
1.33851021
1.33734395
1.33617975
1.33502107
1.33386364
1.33270993
1.33156012
1.33041225
1.32926737
1.32812619
1.32698789
1.32585256
1.32472089
1.32359123
1.32246615
1.32134306
1.32022196
1.31910627
1.31799170
1.31688158
1.31577350
1.31466908
1.31356662
1.31246771
1.31137251
1.31027916
1.30918951
1.30810171
1.30701832
1.30593694
1.30485904
1.30378470
1.30271145
1.30164255
1.30057555
1.29951207
1.29845128
1.29739400
1.29633932
1.29528578
1.29423732
1.29318992
1.29214670
1.29110692
1.29006747
1.28903296
1.28800107
1.28697029
1.28594441
1.28492035
1.28389818
1.28288008
1.28186527
1.28085084
1.27984124
1.27883412
1.27782963
1.27682691
1.27582750
1.27483131
1.27383771
1.27284511
1.27185722
1.27087108
1.26988826
1.26890785
1.26792842
1.26695379
1.26598081
1.26501103
1.26404370
1.26307955
1.26211636
1.26115634
1.26019949
1.25924497
1.25829367
1.25734404
1.25639747
1.25545335
1.25451154
1.25357290
1.25263510
1.25170119
1.25076955
1.24984026
1.24891339
1.24798948
1.24706790
1.24614864
1.24523169
1.24431775
1.24340610
1.24249675
1.24158960
1.24068480
1.23978298
1.23888403
1.23798741
1.23709227
1.23619945
1.23530947
1.23442180
1.23353627
1.23265296
1.23177255
1.23089439
1.23001904
1.22914520
1.22827421
1.22740472
1.22653807
1.22567358
1.22481251
1.22395299
1.22309493
1.22223960
1.22138647
1.22053671
1.21968846
1.21884160
1.21799755
1.21715684
1.21631690
1.21547970
1.21464456
1.21381214
1.21298177
1.21215287
1.21132717
1.21050293
1.20968072
1.20886181
1.20804421
1.20722805
1.20641580
1.20560422
1.20479468
1.20398833
1.20318339
1.20238160
1.20158053
1.20078148
1.19998556
1.19919096
1.19839953
1.19760880
1.19682123
1.19603495
1.19525120
1.19446874
1.19368939
1.19291127
1.19213570
1.19136139
1.19059011
1.18981954
1.18905198
1.18828572
1.18752185
1.18675928
1.18599968
1.18524249
1.18448534
1.18373177
1.18297883
1.18222887
1.18148128
1.18073373
1.17998970
1.17924628
1.17850574
1.17776759
1.17703004
1.17629475
1.17556184
1.17483003
1.17410058
1.17337279
1.17264729
1.17192298
1.17120089
1.17048049
1.16976121
1.16904475
1.16832996
1.16761685
1.16690539
1.16619504
1.16548745
1.16478151
1.16407771
1.16337503
1.16267343
1.16197450
1.16127724
1.16058153
1.15988796
1.15919550
1.15850457
1.15781577
1.15712860
1.15644348
1.15575939
1.15507739
1.15439695
1.15371858
1.15304122
1.15236586
1.15169209
1.15101984
1.15034957
1.14967981
1.14901261
1.14834684
1.14768262
1.14701983
1.14635909
1.14570029
1.14504243
1.14438603
1.14373160
1.14307861
1.14242660
1.14177695
1.14112826
1.14048100
1.13983566
1.13919173
1.13854920
1.13790808
1.13726930
1.13663145
1.13599493
1.13535983
1.13472655
1.13409418
1.13346362
1.13283490
1.13220708
1.13158103
1.13095583
1.13033244
1.12971136
1.12909060
1.12847115
1.12785349
1.12723757
1.12662249
1.12600919
1.12539667
1.12478635
1.12417685
1.12356861
1.12296254
1.12235676
1.12175274
1.12115039
1.12054879
1.11994894
1.11935068
1.11875278
1.11815652
1.11756240
1.11696852
1.11637678
1.11578575
1.11519585
1.11460763
1.11402058
1.11343510
1.11285036
1.11226723
1.11168473
1.11110387
1.11052456
1.10994550
1.10936889
1.10879247
1.10821807
1.10764391
1.10707212
1.10650059
1.10593056
1.10536201
1.10479413
1.10422776
1.10366200
1.10309820
1.10253455
1.10197279
1.10141252
1.10085242
1.10029380
1.09973616
1.09918002
1.09862484
1.09807022
1.09751748
1.09696578
1.09641458
1.09586480
1.09531643
1.09476815
1.09422171
1.09367623
1.09313170
1.09258768
1.09204542
1.09150415
1.09096376
1.09042390
1.08988583
1.08934862
1.08881232
1.08827697
1.08774203
1.08720846
1.08667616
1.08614474
1.08561418
1.08508407
1.08455568
1.08402771
1.08350103
1.08297560
1.08245060
1.08192681
1.08140347
1.08088095
1.08035967
1.07983920
1.07931992
1.07880143
1.07828379
1.07776689
1.07725119
1.07673590
1.07622176
1.07570838
1.07519577
1.07468433
1.07417326
1.07366328
1.07315407
1.07264560
1.07213828
1.07163126
1.07112538
1.07062017
1.07011571
1.06961236
1.06911007
1.06860807
1.06810680
1.06760616
1.06710625
1.06660737
1.06610915
1.06561164
1.06511514
1.06461929
1.06412369
1.06362912
1.06313519
1.06264189
1.06215001
1.06165831
1.06116726
1.06067681
1.06018773
1.05969848
1.05921018
1.05872212
1.05823578
1.05774926
1.05726328
1.05677830
1.05629423
1.05581032
1.05532735
1.05484493
1.05436304
1.05388169
1.05340126
1.05292096
1.05244157
1.05196308
1.05148470
1.05100684
1.05052981
1.05005332
1.04957767
1.04910214
1.04862745
1.04815287
1.04767911
1.04720620
1.04673301
1.04626138
1.04578944
1.04531870
1.04484763
1.04437814
1.04390831
1.04343928
1.04297067
1.04250285
1.04203467
1.04156799
1.04110099
1.04063514
1.04016963
1.03970378
1.03923941
1.03877469
1.03831105
1.03784777
1.03738412
1.03692192
1.03645931
1.03599779
1.03553661
1.03507504
1.03461485
1.03415464
1.03369474
1.03323553
1.03277662
1.03231764
1.03185932
1.03140163
1.03094427
1.03048643
1.03002996
1.02957337
1.02911747
1.02866104
1.02820598
1.02775084
1.02729591
1.02684159
1.02638675
1.02593327
1.02547964
1.02502622
1.02457340
1.02412078
1.02366763
1.02321579
1.02276374
1.02231229
1.02186103
1.02140991
1.02095900
1.02050822
1.02005802
1.01960721
1.01915733
1.01870793
1.01825831
1.01780920
1.01735990
1.01691107
1.01646273
1.01601414
1.01556601
1.01511769
1.01466978
1.01422201
1.01377470
1.01332712
1.01287997
1.01243293
1.01198598
1.01153980
1.01109296
1.01064658
1.01020023
1.00975398
1.00930773
1.00886191
1.00841579
1.00797005
1.00752503
1.00707938
1.00663405
1.00618845
1.00574319
1.00529790
1.00485339
1.00440814
1.00396326
1.00351833
1.00307342
1.00262883
1.00218425
1.00173923
1.00129459
1.00085025
1.00040553
0.99996109
0.99951697
0.99907243
0.99862746
0.99818316
0.99773879
0.99729435
0.99684983
0.99640559
0.99596090
0.99551686
0.99507197
0.99462732
0.99418297
0.99373814
0.99329315
0.99284883
0.99240397
0.99195935
0.99151427
0.99106975
0.99062438
0.99017957
0.98973424
0.98928875
0.98884348
0.98839803
0.98795279
0.98750664
0.98706141
0.98661527
0.98616967
0.98572385
0.98527713
0.98483132
0.98438452
0.98393792
0.98349111
0.98304442
0.98259750
0.98215002
0.98170301
0.98125502
0.98080758
0.98035985
0.97991150
0.97946364
0.97901553
0.97856640
0.97811775
0.97766921
0.97721964
0.97677051
0.97632112
0.97587070
0.97542111
0.97497080
0.97452061
0.97406932
0.97361852
0.97316773
0.97271625
0.97226410
0.97181235
0.97136026
0.97090787
0.97045548
0.97000199
0.96954891
0.96909547
0.96864167
0.96818751
0.96773333
0.96727843
0.96682316
0.96636788
0.96591222
0.96545652
0.96500008
0.96454359
0.96408673
0.96362943
0.96317211
0.96271402
0.96225586
0.96179728
0.96133831
0.96087926
0.96041900
0.95995907
0.95949870
0.95903826
0.95857699
0.95811565
0.95765381
0.95719155
0.95672881
0.95626560
0.95580188
0.95533810
0.95487384
0.95440904
0.95394380
0.95347801
0.95301212
0.95254615
0.95207924
0.95161181
0.95114386
0.95067579
0.95020723
0.94973770
0.94926878
0.94879857
0.94832822
0.94785691
0.94738546
0.94691385
0.94644163
0.94596850
0.94549519
0.94502168
0.94454722
0.94407215
0.94359653
0.94312108
0.94264465
0.94216765
0.94169042
0.94121218
0.94073373
0.94025508
0.93977540
0.93929474
0.93881459
0.93833307
0.93785126
0.93736925
0.93688619
0.93640327
0.93591892
0.93543391
0.93494907
0.93446312
0.93397733
0.93349008
0.93300295
0.93251435
0.93202544
0.93153668
0.93104644
0.93055588
0.93006463
0.92957309
0.92908043
0.92858748
0.92809382
0.92759986
0.92710518
0.92660893
0.92611318
0.92561589
0.92511872
0.92461995
0.92412168
0.92362223
0.92312164
0.92262112
0.92211987
0.92161696
0.92111457
0.92061060
0.92010623
0.91960152
0.91909559
0.91858931
0.91808224
0.91757481
0.91706571
0.91655668
0.91604684
0.91553576
0.91502430
0.91451242
0.91399976
0.91348583
0.91297148
0.91245633
0.91194074
0.91142432
0.91090621
0.91038810
0.90986917
0.90934980
0.90882956
0.90830846
0.90778565
0.90726281
0.90673951
0.90621496
0.90568990
0.90516399
0.90463720
0.90410997
0.90358138
0.90305231
0.90252146
0.90199062
0.90145928
0.90092661
0.90039344
0.89985892
0.89932390
0.89878841
0.89825156
0.89771374
0.89717543
0.89663618
0.89609603
0.89555488
0.89501324
0.89447017
0.89392749
0.89338296
0.89283746
0.89229099
0.89174401
0.89119553
0.89064658
0.89009664
0.88954613
0.88899421
0.88844219
0.88788873
0.88733422
0.88677870
0.88622222
0.88566514
0.88510753
0.88454841
0.88398827
0.88342714
0.88286584
0.88230307
0.88173882
0.88117391
0.88060898
0.88004201
0.87947448
0.87890540
0.87833668
0.87776595
0.87719410
0.87662222
0.87604872
0.87547368
0.87489900
0.87432224
0.87374443
0.87316648
0.87258692
0.87200627
0.87142506
0.87084218
0.87025920
0.86967460
0.86908837
0.86850249
0.86791451
0.86732643
0.86673618
0.86614583
0.86555376
0.86496163
0.86436733
0.86377285
0.86317623
0.86257944
0.86198102
0.86138242
0.86078160
0.86018066
0.85957808
0.85897478
0.85836978
0.85776412
0.85715726
0.85654974
0.85594103
0.85533058
0.85471946
0.85410767
0.85349360
0.85287933
0.85226336
0.85164671
0.85102931
0.85040967
0.84978982
0.84916879
0.84854593
0.84792297
0.84729816
0.84667265
0.84604540
0.84541739
0.84478812
0.84415814
0.84352579
0.84289328
0.84225950
0.84162444
0.84098755
0.84035050
0.83971210
0.83907247
0.83843155
0.83778877
0.83714521
0.83650096
0.83585535
0.83520849
0.83456026
0.83391078
0.83326049
0.83260779
0.83195486
0.83130060
0.83064500
0.82998865
0.82933039
0.82867136
0.82801099
0.82734928
0.82668621
0.82602237
0.82535718
0.82469004
0.82402265
0.82335337
0.82268272
0.82201122
0.82133782
0.82066363
0.81998799
0.81931157
0.81863322
0.81795402
0.81727288
0.81659088
0.81590808
0.81522388
0.81453827
0.81385064
0.81316227
0.81247242
0.81178169
0.81108899
0.81039608
0.80970114
0.80900476
0.80830689
0.80760763
0.80690693
0.80620596
0.80550298
0.80479855
0.80409260
0.80338644
0.80267763
0.80196792
0.80125681
0.80054479
0.79983129
0.79911569
0.79839987
0.79768194
0.79696188
0.79624103
0.79551984
0.79479657
0.79407117
0.79334555
0.79261778
0.79188972
0.79115893
0.79042663
0.78969468
0.78895933
0.78822435
0.78748660
0.78674726
0.78600769
0.78526599
0.78452335
0.78377851
0.78303344
0.78228557
0.78153741
0.78078703
0.78003576
0.77928226
0.77852853
0.77777190
0.77701504
0.77625594
0.77549587
0.77473429
0.77397112
0.77320699
0.77244065
0.77167334
0.77090382
0.77013401
0.76936198
0.76858828
0.76781366
0.76703681
0.76625898
0.76548022
0.76469853
0.76391653
0.76313292
0.76234698
0.76156081
0.76077231
0.75998281
0.75919104
0.75839833
0.75760398
0.75680728
0.75601027
0.75521168
0.75441137
0.75360948
0.75280520
0.75200062
0.75119374
0.75038582
0.74957624
0.74876433
0.74795140
0.74713751
0.74632193
0.74550467
0.74468572
0.74386442
0.74304209
0.74221871
0.74139305
0.74056627
0.73973860
0.73890848
0.73807665
0.73724377
0.73640925
0.73557293
0.73473496
0.73389527
0.73305453
0.73221137
0.73136716
0.73052121
0.72967359
0.72882492
0.72797374
0.72712157
0.72626765
0.72541197
0.72455461
0.72369611
0.72283523
0.72197320
0.72110948
0.72024398
0.71937671
0.71850766
0.71763832
0.71676649
0.71589287
0.71501739
0.71414020
0.71326200
0.71238271
0.71150084
0.71061724
0.70973176
0.70884447
0.70795696
0.70706693
0.70617419
0.70528044
0.70438487
0.70348908
0.70259067
0.70168961
0.70078834
0.69988443
0.69897949
0.69807190
0.69716402
0.69625273
0.69534042
0.69442782
0.69351180
0.69259384
0.69167576
0.69075491
0.68983302
0.68890852
0.68798206
0.68705540
0.68612612
0.68519571
0.68426258
0.68332757
0.68239151
0.68145357
0.68051459
0.67957201
0.67863009
0.67768456
0.67673799
0.67578943
0.67483990
0.67388675
0.67293418
0.67197806
0.67102088
0.67006170
0.66910147
0.66813765
0.66717443
0.66620850
0.66523968
0.66427067
0.66329884
0.66232604
0.66135121
0.66037356
0.65939572
0.65841416
0.65743241
0.65644872
0.65546217
0.65447536
0.65348668
0.65249514
0.65150162
0.65050695
0.64951039
0.64851185
0.64751125
0.64650966
0.64550599
0.64449952
0.64349189
0.64248317
0.64147155
0.64045801
0.63944331
0.63842661
0.63740790
0.63638811
0.63536539
0.63434065
0.63331483
0.63228699
0.63125713
0.63022619
0.62919322
0.62815719
0.62711923
0.62608017
0.62503994
0.62399681
0.62295260
0.62190625
0.62085785
0.61980751
0.61875502
0.61770143
0.61664493
0.61558724
0.61452749
0.61346577
0.61240286
0.61133692
0.61026987
0.60920076
0.60812957
0.60705631
0.60598097
0.60490443
0.60382492
0.60274430
0.60166160
0.60057870
0.59949181
0.59840273
0.59731265
0.59622037
0.59512608
0.59402959
0.59293108
0.59183238
0.59073056
0.58962673
0.58852068
0.58741251
0.58630323
0.58519183
0.58407830
0.58296162
0.58184382
0.58072595
0.57960389
0.57848071
0.57735437
0.57622784
0.57509823
0.57396752
0.57283455
0.57169953
0.57056131
0.56942292
0.56828143
0.56713872
0.56599385
0.56484692
0.56369665
0.56254633
0.56139288
0.56023916
0.55908136
0.55792126
0.55676111
0.55559772
0.55443427
0.55326649
0.55209652
0.55092640
0.54975214
0.54857762
0.54739993
0.54622210
0.54503999
0.54385786
0.54267133
0.54148466
0.54029480
0.53910480
0.53791038
0.53671606
0.53551940
0.53431831
0.53311830
0.53191396
0.53070839
0.52950169
0.52829053
0.52707935
0.52586482
0.52465028
0.52343238
0.52221222
0.52098982
0.51976731
0.51853926
0.51731235
0.51608194
0.51484937
0.51361454
0.51237847
0.51114128
0.50989964
0.50865688
0.50741287
0.50616659
0.50491583
0.50366499
0.50241302
0.50115761
0.49989886
0.49864026
0.49737914
0.49611572
0.49485118
0.49358317
0.49231168
0.49104024
0.48976637
0.48849032
0.48721195
0.48593234
0.48464935
0.48336523
0.48207868
0.48078872
0.47949752
0.47820411
0.47690946
0.47561260
0.47431328
0.47301164
0.47170765
0.47040145
0.46909400
0.46778300
0.46647086
0.46515638
0.46383955
0.46252159
0.46120006
0.45987739
0.45855238
0.45722487
0.45589513
0.45456427
0.45323092
0.45189532
0.45055611
0.44921565
0.44787294
0.44652898
0.44518151
0.44383405
0.44248295
0.44112960
0.43977373
0.43841547
0.43705494
0.43569443
0.43433026
0.43296370
0.43159473
0.43022336
0.42885215
0.42747597
0.42609867
0.42471895
0.42333799
0.42195345
0.42056779
0.41917959
0.41778909
0.41639618
0.41500201
0.41360425
0.41220392
0.41080378
0.40940004
0.40799372
0.40658629
0.40517524
0.40376161
0.40234819
0.40092980
0.39951150
0.39808941
0.39666488
0.39524056
0.39381112
0.39238176
0.39094875
0.38951461
0.38807667
0.38663762
0.38519596
0.38375333
0.38230552
0.38085781
0.37940641
0.37795512
0.37649876
0.37504252
0.37358119
0.37211999
0.37065506
0.36919027
0.36772161
0.36625046
0.36477681
0.36330081
0.36182356
0.36034507
0.35886156
0.35737681
0.35589082
0.35440106
0.35291019
0.35141681
0.34992092
0.34842238
0.34692287
0.34541801
0.34391475
0.34240769
