corrn_curve_quadratic
1.41295815
1.41262509
1.41229098
1.41195675
1.41162148
1.41128611
1.41095014
1.41061361
1.41027647
1.40993875
1.40960094
1.40926208
1.40892310
1.40858306
1.40824292
1.40790220
1.40756091
1.40721903
1.40687705
1.40653401
1.40619090
1.40584670
1.40550290
1.40515802
1.40481259
1.40446656
1.40411994
1.40377325
1.40342551
1.40307767
1.40272925
1.40238025
1.40203068
1.40168052
1.40133028
1.40097898
1.40062761
1.40027567
1.39992263
1.39956951
1.39921584
1.39886208
1.39850724
1.39815184
1.39779636
1.39744031
1.39708368
1.39672596
1.39636871
1.39601036
1.39565144
1.39529247
1.39493241
1.39457227
1.39421158
1.39385032
1.39348846
1.39312606
1.39276306
1.39239951
1.39203643
1.39167171
1.39130696
1.39094163
1.39057523
1.39020930
1.38984226
1.38947519
1.38910702
1.38873878
1.38837001
1.38800066
1.38763072
1.38726024
1.38688919
1.38651809
1.38614587
1.38577366
1.38540086
1.38502749
1.38465302
1.38427904
1.38390399
1.38352835
1.38315214
1.38277592
1.38239966
1.38202175
1.38164383
1.38126535
1.38088627
1.38050719
1.38012701
1.37974679
1.37936604
1.37898442
1.37860251
1.37822032
1.37783704
1.37745400
1.37707013
1.37668597
1.37630068
1.37591539
1.37552952
1.37514283
1.37475614
1.37436886
1.37398134
1.37359294
1.37320372
1.37281449
1.37242472
1.37203465
1.37164374
1.37125226
1.37086051
1.37046823
1.37007562
1.36968248
1.36928879
1.36889395
1.36849942
1.36810405
1.36770838
1.36731247
1.36691569
1.36651867
1.36612106
1.36572292
1.36532420
1.36492521
1.36452538
1.36412501
1.36372435
1.36332344
1.36292167
1.36251964
1.36211706
1.36171422
1.36131049
1.36090654
1.36050261
1.36009755
1.35969220
1.35928633
1.35887988
1.35847290
1.35806534
1.35765753
1.35724919
1.35684027
1.35643080
1.35602108
1.35561111
1.35520056
1.35478918
1.35437724
1.35396507
1.35355234
1.35313964
1.35272581
1.35231170
1.35189707
1.35148186
1.35106672
1.35065044
1.35023389
1.34981679
1.34939917
1.34898156
1.34856312
1.34814413
1.34772522
1.34730513
1.34688481
1.34646393
1.34604280
1.34562114
1.34519863
1.34477616
1.34435283
1.34392930
1.34350551
1.34308054
1.34265598
1.34223026
1.34180397
1.34137776
1.34095069
1.34052308
1.34009556
1.33966685
1.33923853
1.33880873
1.33837935
1.33794907
1.33751861
1.33708695
1.33665569
1.33622323
1.33579088
1.33535769
1.33492458
1.33449027
1.33405608
1.33362068
1.33318573
1.33274957
1.33231353
1.33187629
1.33143950
1.33100180
1.33056326
1.33012484
1.32968552
1.32924602
1.32880628
1.32836536
1.32792454
1.32748351
1.32704127
1.32659916
1.32615651
1.32571268
1.32526929
1.32482502
1.32438021
1.32393517
1.32348962
1.32304387
1.32259691
1.32215004
1.32170268
1.32125508
1.32080630
1.32035763
1.31990842
1.31945867
1.31900808
1.31855760
1.31810659
1.31765503
1.31720329
1.31675066
1.31629750
1.31584415
1.31539026
1.31493615
1.31448153
1.31402635
1.31357067
1.31311442
1.31265801
1.31220038
1.31174287
1.31128517
1.31082660
1.31036787
1.30990857
1.30944910
1.30898874
1.30852819
1.30806708
1.30760547
1.30714333
1.30668101
1.30621781
1.30575439
1.30529083
1.30482634
1.30436172
1.30389653
1.30343084
1.30296459
1.30249852
1.30203156
1.30156408
1.30109606
1.30062787
1.30015915
1.29968955
1.29921977
1.29875018
1.29827970
1.29780866
1.29733713
1.29686507
1.29639245
1.29592037
1.29544673
1.29497324
1.29449891
1.29402401
1.29354966
1.29307407
1.29259799
1.29212134
1.29164490
1.29116757
1.29068971
1.29021201
1.28973347
1.28925403
1.28877513
1.28829501
1.28781470
1.28733427
1.28685290
1.28637105
1.28588901
1.28540645
1.28492339
1.28444015
1.28395601
1.28347210
1.28298729
1.28250158
1.28201647
1.28153009
1.28104390
1.28055685
1.28006965
1.27958155
1.27909327
1.27860489
1.27811557
1.27762614
1.27713577
1.27664564
1.27615465
1.27566348
1.27517217
1.27467958
1.27418723
1.27369398
1.27320059
1.27270668
1.27221264
1.27171803
1.27122219
1.27072697
1.27023047
1.26973417
1.26923774
1.26873969
1.26824222
1.26774424
1.26724502
1.26674639
1.26624686
1.26574647
1.26524629
1.26474594
1.26424400
1.26374266
1.26324077
1.26273840
1.26223513
1.26173173
1.26122816
1.26072412
1.26021879
1.25971408
1.25920845
1.25870275
1.25819649
1.25768894
1.25718208
1.25667428
1.25616636
1.25565793
1.25514938
1.25463953
1.25412956
1.25361947
1.25310883
1.25259812
1.25208649
1.25157471
1.25106246
1.25054966
1.25003679
1.24952257
1.24900867
1.24849423
1.24797927
1.24746384
1.24694827
1.24643218
1.24591558
1.24539848
1.24488126
1.24436354
1.24384531
1.24332653
1.24280728
1.24228792
1.24176842
1.24124846
1.24072754
1.24020615
1.23968462
1.23916263
1.23864008
1.23811703
1.23759388
1.23707027
1.23654651
1.23602184
1.23549707
1.23497139
1.23444561
1.23391932
1.23339331
1.23286642
1.23233862
1.23181068
1.23128228
1.23075416
1.23022516
1.22969520
1.22916520
1.22863547
1.22810442
1.22757327
1.22704162
1.22650988
1.22597764
1.22544453
1.22491166
1.22437791
1.22384366
1.22330974
1.22277486
1.22223910
1.22170410
1.22116771
1.22063087
1.22009432
1.21955689
1.21901976
1.21848129
1.21794237
1.21740374
1.21686418
1.21632498
1.21578443
1.21524422
1.21470310
1.21416189
1.21361977
1.21307799
1.21253525
1.21199248
1.21144878
1.21090539
1.21036070
1.20981632
1.20927106
1.20872568
1.20817943
1.20763348
1.20708747
1.20653968
1.20599268
1.20544432
1.20489633
1.20434827
1.20379842
1.20324937
1.20269896
1.20214888
1.20159877
1.20104731
1.20049574
1.19994415
1.19939160
1.19883902
1.19828591
1.19773274
1.19717868
1.19662452
1.19606987
1.19551428
1.19495908
1.19440339
1.19384720
1.19329052
1.19273291
1.19217568
1.19161796
1.19106015
1.19050144
1.18994181
1.18938252
1.18882278
1.18826251
1.18770219
1.18714098
1.18657924
1.18601745
1.18545521
1.18489288
1.18432961
1.18376631
1.18320251
1.18263867
1.18207389
1.18150902
1.18094372
1.18037792
1.17981203
1.17924481
1.17867800
1.17811065
1.17754285
1.17697453
1.17640621
1.17583781
1.17526847
1.17469865
1.17412879
1.17355844
1.17298720
1.17241629
1.17184448
1.17127218
1.17069986
1.17012705
1.16955375
1.16897996
1.16840656
1.16783226
1.16725743
1.16668216
1.16610682
1.16553058
1.16495426
1.16437793
1.16380069
1.16322338
1.16264514
1.16206686
1.16148902
1.16090978
1.16033006
1.15975031
1.15917050
1.15858979
1.15800906
1.15742738
1.15684610
1.15626392
1.15568126
1.15509900
1.15451533
1.15393169
1.15334799
1.15276334
1.15217872
1.15159399
1.15100795
1.15042184
1.14983619
1.14924912
1.14866251
1.14807495
1.14748686
1.14689881
1.14631029
1.14572170
1.14513222
1.14454272
1.14395223
1.14336178
1.14277128
1.14217940
1.14158841
1.14099600
1.14040406
1.13981074
1.13921827
1.13862447
1.13803062
1.13743672
1.13684192
1.13624711
1.13565135
1.13505608
1.13445937
1.13386309
1.13326681
1.13266915
1.13207150
1.13147332
1.13087519
1.13027654
1.12967693
1.12907781
1.12847827
1.12787772
1.12727718
1.12667665
1.12607468
1.12547320
1.12487125
1.12426882
1.12366544
1.12306250
1.12245914
1.12185526
1.12125047
1.12064618
1.12004137
1.11943609
1.11883038
1.11822367
1.11761702
1.11701033
1.11640318
1.11579556
1.11518698
1.11457890
1.11396986
1.11336085
1.11275185
1.11214190
1.11153191
1.11092102
1.11030965
1.10969831
1.10908650
1.10847466
1.10786235
1.10724963
1.10663638
1.10602317
1.10540903
1.10479488
1.10418026
1.10356517
1.10295011
1.10233414
1.10171809
1.10110163
1.10048470
1.09986780
1.09924994
1.09863211
1.09801376
1.09739500
1.09677627
1.09615753
1.09553782
1.09491769
1.09429705
1.09367599
1.09305492
1.09243339
1.09181144
1.09118948
1.09056705
1.08994366
1.08932030
1.08869649
1.08807220
1.08744847
1.08682372
1.08619855
1.08557292
1.08494779
1.08432124
1.08369467
1.08306719
1.08244072
1.08181282
1.08118441
1.08055610
1.07992778
1.07929849
1.07866926
1.07803956
1.07740939
1.07677877
1.07614820
1.07551666
1.07488516
1.07425373
1.07362131
1.07298844
1.07235557
1.07172229
1.07108902
1.07045482
1.06982063
1.06918551
1.06855040
1.06791535
1.06727885
1.06664340
1.06600646
1.06537009
1.06473223
1.06409546
1.06345720
1.06281901
1.06218035
1.06154176
1.06090167
1.06026263
1.05962215
1.05898225
1.05834185
1.05769999
1.05705920
1.05641695
1.05577525
1.05513309
1.05448947
1.05384693
1.05320287
1.05255942
1.05191551
1.05127014
1.05062579
1.04998052
1.04933479
1.04868913
1.04804303
1.04739593
1.04674892
1.04610192
1.04545453
1.04480562
1.04415780
1.04350899
1.04286031
1.04221007
1.04156097
1.04091094
1.04026040
1.03960994
1.03895796
1.03830714
1.03765533
1.03700306
1.03635088
1.03569825
1.03504410
1.03439110
1.03373706
1.03308317
1.03242882
1.03177397
1.03111872
1.03046297
1.02980736
1.02915016
1.02849366
1.02783718
1.02717972
1.02652235
1.02586405
1.02520578
1.02454761
1.02388844
1.02322932
1.02256931
1.02190929
1.02124887
1.02058856
1.01992724
1.01926598
1.01860432
1.01794221
1.01728069
1.01661763
1.01595473
1.01529133
1.01462753
1.01396324
1.01329904
1.01263391
1.01196882
1.01130433
1.01063841
1.00997248
1.00930567
1.00863890
1.00797164
1.00730509
1.00663699
1.00596900
1.00530051
1.00463163
1.00396280
1.00329359
1.00262332
1.00195321
1.00128317
1.00061218
0.99994125
0.99927043
0.99859861
0.99792579
0.99725364
0.99658105
0.99590802
0.99523455
0.99456119
0.99388683
0.99321315
0.99253791
0.99186273
0.99118772
0.99051171
0.98983521
0.98915944
0.98848262
0.98780592
0.98712826
0.98645124
0.98577271
0.98509481
0.98441591
0.98373656
0.98305735
0.98237769
0.98169816
0.98101705
0.98033721
0.97965579
0.97897507
0.97829386
0.97761112
0.97692966
0.97624656
0.97556365
0.97488030
0.97419703
0.97351331
0.97282865
0.97214464
0.97145904
0.97077421
0.97008888
0.96940255
0.96871692
0.96803086
0.96734322
0.96665628
0.96596949
0.96528110
0.96459338
0.96390528
0.96321559
0.96252719
0.96183773
0.96114846
0.96045755
0.95976741
0.95907736
0.95838630
0.95769428
0.95700293
0.95631114
0.95561898
0.95492691
0.95423324
0.95354030
0.95284693
0.95215312
0.95145888
0.95076473
0.95006963
0.94937409
0.94867870
0.94798288
0.94728716
0.94659047
0.94589388
0.94519692
0.94449946
0.94380217
0.94310391
0.94240575
0.94170716
0.94100819
0.94030933
0.93960885
0.93890913
0.93820897
0.93750897
0.93680795
0.93610710
0.93540575
0.93470403
0.93400189
0.93329931
0.93259625
0.93189341
0.93119014
0.93048638
0.92978225
0.92907763
0.92837318
0.92766895
0.92696365
0.92625791
0.92555175
0.92484575
0.92413939
0.92343194
0.92272580
0.92201809
0.92131056
0.92060200
0.91989361
0.91918540
0.91847669
0.91776703
0.91705753
0.91634815
0.91563781
0.91492697
0.91421577
0.91350530
0.91279379
0.91208192
0.91137016
0.91065738
0.90994477
0.90923235
0.90851889
0.90780447
0.90709132
0.90637665
0.90566205
0.90494768
0.90423229
0.90351763
0.90280138
0.90208472
0.90136885
0.90065188
0.89993571
0.89921797
0.89850095
0.89778236
0.89706389
0.89634622
0.89562697
0.89490784
0.89418830
0.89346894
0.89274855
0.89202835
0.89130773
0.89058731
0.88986646
0.88914396
0.88842283
0.88770010
0.88697819
0.88625462
0.88553242
0.88480919
0.88408498
0.88336152
0.88263770
0.88191217
0.88118807
0.88046238
0.87973683
0.87901147
0.87828508
0.87755889
0.87683228
0.87610587
0.87537781
0.87465056
0.87392290
0.87319420
0.87246571
0.87173735
0.87100865
0.87027890
0.86954929
0.86881933
0.86808952
0.86735929
0.86662745
0.86589639
0.86516497
0.86443370
0.86370202
0.86296992
0.86223621
0.86150328
0.86077049
0.86003679
0.85930318
0.85856922
0.85783484
0.85710067
0.85636546
0.85563041
0.85489374
0.85415792
0.85342225
0.85268560
0.85194910
0.85121163
0.85047430
0.84973720
0.84899912
0.84826055
0.84752221
0.84678346
0.84604435
0.84530477
0.84456542
0.84382501
0.84308604
0.84234545
0.84160445
0.84086303
0.84012184
0.83937953
0.83863752
0.83789510
0.83715284
0.83640959
0.83566715
0.83492372
0.83417981
0.83343550
0.83269084
0.83194635
0.83120208
0.83045677
0.82971105
0.82896498
0.82821966
0.82747335
0.82672605
0.82597886
0.82523261
0.82448467
0.82373696
0.82298820
0.82224090
0.82149196
0.82074256
0.81999410
0.81924452
0.81849396
0.81774486
0.81699406
0.81624292
0.81549260
0.81474123
0.81398945
0.81323798
0.81248538
0.81173369
0.81098093
0.81022711
0.80947478
0.80872081
0.80796773
0.80721294
0.80645906
0.80570405
0.80495001
0.80419425
0.80343933
0.80268276
0.80192703
0.80117031
0.80041443
0.79965683
0.79890015
0.79814246
0.79738497
0.79662641
0.79586810
0.79510940
0.79435094
0.79359209
0.79283217
0.79207251
0.79131310
0.79055197
0.78979170
0.78903042
0.78826941
0.78750859
0.78674611
0.78598448
0.78522252
0.78445943
0.78369733
0.78293410
0.78217113
0.78140716
0.78064339
0.77987922
0.77911531
0.77834967
0.77758496
0.77681986
0.77605435
0.77528777
0.77452213
0.77375602
0.77298958
0.77222274
0.77145483
0.77068712
0.76991976
0.76915192
0.76838375
0.76761512
0.76684616
0.76607740
0.76530696
0.76453741
0.76376745
0.76299710
0.76222702
0.76145588
0.76068500
0.75991373
0.75914207
0.75837000
0.75759821
0.75682603
0.75605277
0.75528041
0.75450703
0.75373326
0.75295970
0.75218514
0.75141086
0.75063611
0.74986164
0.74908617
0.74831092
0.74753465
0.74675861
0.74598285
0.74520669
0.74443014
0.74365251
0.74287524
0.74209751
0.74131999
0.74054147
0.73976391
0.73898529
0.73820626
0.73742677
0.73664696
0.73586675
0.73508746
0.73430715
0.73352645
0.73274529
0.73196510
0.73118322
0.73040157
0.72961959
0.72883784
0.72805569
0.72727247
0.72649023
0.72570691
0.72492250
0.72413847
0.72335528
0.72257109
0.72178580
0.72100152
0.72021614
0.71943170
0.71864554
0.71785900
0.71707407
0.71628675
0.71550104
0.71471363
0.71392575
0.71313888
0.71235099
0.71156333
0.71077459
0.70998686
0.70919741
0.70840890
0.70761929
0.70683000
0.70603962
0.70525025
0.70445910
0.70366895
0.70287771
0.70208672
0.70129541
0.70050371
0.69971225
0.69891977
0.69812754
0.69733429
0.69654199
0.69574866
0.69495488
0.69416141
0.69336693
0.69257269
0.69177877
0.69098312
0.69018843
0.68939335
0.68859717
0.68780203
0.68700579
0.68620980
0.68541279
0.68461610
0.68381903
0.68302086
0.68222366
0.68142614
0.68062816
0.67982987
0.67903048
0.67823207
0.67743262
0.67663343
0.67583386
0.67503326
0.67423292
0.67343291
0.67263251
0.67183173
0.67103057
0.67022838
0.66942645
0.66862478
0.66782216
0.66701972
0.66621769
0.66541456
0.66461105
0.66380780
0.66300424
0.66220023
0.66139591
0.66059120
0.65978676
0.65898129
0.65817608
0.65737050
0.65656460
0.65575897
0.65495224
0.65414585
0.65333908
0.65253193
0.65172447
0.65091721
0.65010899
0.64930096
0.64849263
0.64768392
0.64687483
0.64606536
0.64525688
0.64444738
0.64363749
0.64282715
0.64201651
0.64120621
0.64039619
0.63958507
0.63877363
0.63796175
0.63714948
0.63633830
0.63552608
0.63471268
0.63389964
0.63308621
0.63227387
0.63146042
0.63064586
0.62983238
0.62901780
0.62820357
0.62738823
0.62657391
0.62575782
0.62494208
0.62412737
0.62331088
0.62249394
0.62167816
0.62086121
0.62004461
0.61922697
0.61840889
0.61759190
0.61677388
0.61595614
0.61513729
0.61431806
0.61349920
0.61267996
0.61186109
0.61104036
0.61022148
0.60940074
0.60858037
0.60775955
0.60693917
0.60611694
0.60529648
0.60447424
0.60365237
0.60283005
0.60200809
0.60118436
0.60036240
0.59953941
0.59871522
0.59789215
0.59706796
0.59624422
0.59542003
0.59459472
0.59377054
0.59294449
0.59211956
0.59129425
0.59046783
0.58964246
0.58881679
0.58799001
0.58716285
0.58633599
0.58550884
0.58468132
0.58385335
0.58302583
0.58219787
0.58136887
0.58054017
0.57971185
0.57888241
0.57805267
0.57722325
0.57639345
0.57556328
0.57473350
0.57390260
0.57307132
0.57224043
0.57140917
0.57057755
0.56974631
0.56891470
0.56808189
0.56724879
0.56641607
0.56558368
0.56475023
0.56391717
0.56308366
0.56224979
0.56141563
0.56058103
0.55974681
0.55891155
0.55807660
0.55724129
0.55640568
0.55557040
0.55473398
0.55389796
0.55306158
0.55222482
0.55138771
0.55055022
0.54971306
0.54887484
0.54803702
0.54719884
0.54636175
0.54552283
0.54468347
0.54384460
0.54300528
0.54216567
0.54132562
0.54048528
0.53964603
0.53880566
0.53796499
0.53712389
0.53628242
0.53544135
0.53459993
0.53375814
0.53291521
0.53207269
0.53123135
0.53038811
0.52954527
0.52870130
0.52785843
0.52701450
0.52617099
0.52532703
0.52448279
0.52363741
0.52279314
0.52194782
0.52110283
0.52025747
0.51941183
0.51856498
0.51771932
0.51687259
0.51602691
0.51517946
0.51433158
0.51348489
0.51263706
0.51179043
0.51094188
0.51009296
0.50924517
0.50839562
0.50754711
0.50669753
0.50584909
0.50499879
0.50414970
0.50329869
0.50244880
0.50159785
0.50074803
0.49989628
0.49904582
0.49819492
0.49734209
0.49649126
0.49563858
0.49478625
0.49393434
0.49308050
0.49222788
0.49137412
0.49052157
0.48966787
0.48881382
0.48795941
0.48710614
0.48625022
0.48539632
0.48454119
0.48368578
0.48283001
0.48197460
0.48111962
0.48026278
0.47940638
0.47855034
0.47769394
0.47683567
0.47597856
0.47512188
0.47426406
0.47340516
0.47254757
0.47168948
0.47083102
0.46997301
0.46911384
0.46825353
0.46739445
0.46653494
0.46567515
0.46481501
0.46395523
0.46309438
0.46223397
0.46137313
0.46051121
0.45964966
0.45878784
0.45792638
0.45706465
0.45620248
0.45533997
0.45447709
0.45361395
0.45275117
0.45188724
0.45102376
0.45015993
0.44929574
0.44843200
0.44756711
0.44670267
0.44583788
0.44497265
0.44410715
0.44324211
0.44237664
0.44151089
0.44064399
0.43977746
0.43891065
0.43804423
0.43717673
0.43631041
0.43544293
0.43457518
0.43370700
0.43283847
0.43196967
0.43110206
0.43023329
0.42936417
0.42849469
0.42762487
0.42675632
0.42588580
0.42501574
0.42414533
0.42327531
0.42240420
0.42153356
0.42066248
0.41979114
0.41891945
0.41804815
0.41717576
0.41630294
0.41543141
0.41455879
0.41368574
0.41281317
0.41193951
0.41106541
0.41019261
0.40931791
0.40844441
0.40756974
0.40669473
0.40582101
0.40494531
0.40407081
0.40319523
0.40232013
0.40144385
0.40056805
0.39969183
0.39881616
0.39793850
0.39706205
0.39618452
0.39530821
0.39442999
0.39355298
0.39267407
0.39179638
0.39091759
0.39004004
0.38916131
0.38828223
0.38740282
0.38652313
0.38564385
0.38476497
0.38388426
0.38300394
0.38212403
0.38124302
0.38036250
0.37948164
0.37860043
0.37771880
0.37683774
0.37595467
0.37507367
0.37419157
