corrn_curve_linear
1.66075978
1.65987831
1.65899563
1.65811416
1.65723148
1.65635007
1.65546861
1.65458720
1.65370573
1.65282427
1.65194408
1.65106267
1.65018248
1.64930101
1.64842082
1.64754063
1.64666044
1.64578025
1.64490127
1.64402108
1.64314216
1.64226197
1.64138427
1.64050529
1.63962638
1.63874740
1.63786842
1.63699072
1.63611180
1.63523410
1.63435640
1.63347870
1.63260100
1.63172330
1.63084681
1.62996911
1.62909268
1.62821626
1.62733855
1.62646206
1.62558564
1.62471043
1.62383394
1.62295751
1.62208230
1.62120709
1.62033188
1.61945539
1.61858145
1.61770624
1.61683103
1.61595709
1.61508188
1.61420788
1.61333394
1.61246001
1.61158601
1.61071207
1.60983807
1.60896414
1.60809269
1.60721869
1.60634597
1.60547325
1.60459931
1.60372787
1.60285514
1.60198370
1.60111097
1.60023947
1.59936802
1.59849657
1.59762506
1.59675362
1.59588217
1.59501194
1.59414043
1.59327026
1.59240002
1.59152979
1.59065835
1.58978932
1.58891916
1.58804892
1.58717869
1.58630973
1.58544199
1.58457176
1.58370280
1.58283384
1.58196482
1.58109708
1.58022812
1.57936038
1.57849270
1.57762432
1.57675657
1.57588947
1.57502115
1.57415468
1.57328757
1.57242111
1.57155336
1.57068690
1.56982037
1.56895326
1.56808743
1.56722154
1.56635635
1.56549046
1.56462399
1.56375873
1.56289354
1.56202893
1.56116367
1.56029842
1.55943380
1.55856925
1.55770521
1.55684123
1.55597725
1.55511200
1.55424866
1.55338468
1.55252128
1.55165858
1.55079518
1.54993247
1.54906971
1.54820701
1.54734424
1.54648212
1.54561935
1.54475665
1.54389453
1.54303304
1.54217091
1.54130942
1.54044793
1.53958708
1.53872553
1.53786468
1.53700505
1.53614420
1.53528392
1.53442371
1.53356343
1.53270322
1.53184295
1.53098331
1.53012374
1.52926410
1.52840446
1.52754546
1.52668710
1.52582868
1.52496968
1.52411068
1.52325232
1.52239396
1.52153681
1.52067845
1.51982067
1.51896294
1.51810516
1.51724865
1.51639093
1.51553378
1.51467663
1.51381955
1.51296361
1.51210710
1.51125060
1.51039536
1.50953885
1.50868298
1.50782711
1.50697182
1.50611658
1.50526071
1.50440605
1.50355076
1.50269616
1.50184214
1.50098685
1.50013347
1.49927887
1.49842421
1.49757083
1.49671681
1.49586279
1.49501005
1.49415603
1.49330386
1.49244984
1.49159774
1.49074493
1.48989283
1.48903944
1.48818791
1.48733511
1.48648358
1.48563147
1.48478058
1.48392841
1.48307752
1.48222535
1.48137510
1.48052357
1.47967331
1.47882178
1.47797217
1.47712185
1.47627096
1.47542134
1.47457103
1.47372141
1.47287237
1.47202212
1.47117308
1.47032467
1.46947499
1.46862659
1.46777819
1.46692857
1.46608081
1.46523241
1.46438400
1.46353618
1.46268841
1.46184129
1.46099288
1.46014569
1.45929857
1.45845202
1.45760425
1.45675770
1.45591115
1.45506460
1.45421747
1.45337156
1.45252565
1.45167973
1.45083446
1.44998855
1.44914263
1.44829736
1.44745208
1.44660738
1.44576275
1.44491805
1.44407341
1.44322871
1.44238471
1.44153944
1.44069538
1.43985195
1.43900789
1.43816453
1.43732111
1.43647832
1.43563490
1.43479212
1.43394927
1.43310648
1.43226370
1.43142155
1.43057876
1.42973655
1.42889504
1.42805283
1.42721133
1.42636975
1.42552824
1.42468667
1.42384638
1.42300544
1.42216451
1.42132357
1.42048328
1.41964298
1.41880205
1.41796175
1.41712273
1.41628308
1.41544336
1.41460370
1.41376404
1.41292432
1.41208651
1.41124686
1.41040841
1.40956939
1.40873031
1.40789314
1.40705470
1.40621632
1.40537787
1.40454070
1.40370290
1.40286509
1.40202850
1.40119133
1.40035353
1.39951757
1.39868040
1.39784381
1.39700792
1.39617132
1.39533479
1.39449884
1.39366288
1.39282699
1.39199168
1.39115572
1.39032104
1.38948573
1.38864977
1.38781573
1.38698041
1.38614631
1.38531163
1.38447759
1.38364291
1.38280881
1.38197541
1.38114130
1.38030790
1.37947380
1.37864097
1.37780757
1.37697474
1.37614255
1.37530909
1.37447690
1.37364407
1.37281188
1.37197969
1.37114814
1.37031653
1.36948370
1.36865279
1.36782060
1.36698962
1.36615929
1.36532710
1.36449676
1.36366642
1.36283487
1.36200517
1.36117483
1.36034392
1.35951422
1.35868510
1.35785419
1.35702512
1.35619600
1.35536694
1.35453724
1.35370818
1.35287969
1.35205127
1.35122157
1.35039372
1.34956523
1.34873745
1.34790960
1.34708048
1.34625333
1.34542548
1.34459827
1.34377106
1.34294449
1.34211664
1.34128943
1.34046286
1.33963623
1.33881029
1.33798372
1.33715772
1.33633179
1.33550579
1.33468050
1.33385386
1.33302857
1.33220321
1.33137785
1.33055256
1.32972784
1.32890311
1.32807839
1.32725367
1.32642959
1.32560551
1.32478143
1.32395728
1.32313320
1.32230976
1.32148689
1.32066408
1.31984057
1.31901713
1.31819426
1.31737145
1.31654859
1.31572572
1.31490349
1.31408132
1.31325973
1.31243749
1.31161590
1.31079367
1.30997208
1.30915049
1.30833011
1.30750915
1.30668756
1.30586654
1.30504559
1.30422584
1.30340553
1.30258451
1.30176419
1.30094509
1.30012471
1.29930497
1.29848523
1.29766613
1.29684702
1.29602734
1.29520882
1.29438971
1.29357061
1.29275278
1.29193425
1.29111515
1.29029796
1.28947943
1.28866097
1.28784372
1.28702589
1.28620928
1.28539139
1.28457356
1.28375695
1.28293969
1.28212372
1.28130647
1.28049049
1.27967388
1.27885790
1.27804129
1.27722595
1.27640991
1.27559458
1.27477860
1.27396384
1.27314786
1.27233310
1.27151776
1.27070300
1.26988766
1.26907354
1.26826005
1.26744465
1.26663117
1.26581640
1.26500292
1.26419007
1.26337531
1.26256246
1.26174834
1.26093543
1.26012322
1.25930973
1.25849682
1.25768461
1.25687170
1.25605949
1.25524722
1.25443558
1.25362337
1.25281174
1.25200010
1.25118783
1.25037683
1.24956584
1.24875484
1.24794384
1.24713221
1.24632185
1.24551149
1.24470171
1.24389135
1.24308035
1.24227057
1.24146085
1.24065107
1.23984192
1.23903220
1.23822242
1.23741327
1.23660419
1.23579569
1.23498654
1.23417803
1.23336953
1.23256166
1.23175315
1.23094522
1.23013735
1.22932948
1.22852219
1.22771368
1.22690645
1.22609916
1.22529193
1.22448463
1.22367804
1.22287202
1.22206537
1.22125871
1.22045269
1.21964668
1.21884008
1.21803464
1.21722862
1.21642261
1.21561723
1.21481185
1.21400647
1.21320109
1.21239692
1.21159218
1.21078738
1.20998264
1.20917847
1.20837373
1.20756956
1.20676604
1.20596193
1.20515841
1.20435424
1.20355071
1.20274846
1.20194493
1.20114140
1.20033851
1.19953620
1.19873331
1.19793106
1.19712817
1.19632649
1.19552424
1.19472199
1.19392095
1.19311864
1.19231702
1.19151598
1.19071431
1.18991333
1.18911287
1.18831126
1.18751022
1.18671046
1.18590942
1.18510966
1.18430926
1.18350879
1.18270903
1.18190927
1.18111008
1.18031032
1.17951120
1.17871137
1.17791225
1.17711370
1.17631394
1.17551602
1.17471684
1.17391893
1.17311980
1.17232247
1.17152398
1.17072607
1.16992874
1.16913082
1.16833355
1.16753564
1.16673901
1.16594110
1.16514440
1.16434834
1.16355107
1.16275443
1.16195774
1.16116174
1.16036568
1.15956898
1.15877356
1.15797820
1.15718214
1.15638672
1.15559194
1.15479588
1.15400110
1.15320632
1.15241153
1.15161611
1.15082190
1.15002776
1.14923355
1.14843877
1.14764526
1.14685169
1.14605812
1.14526461
1.14447041
1.14367690
1.14288397
1.14209104
1.14129811
1.14050454
1.13971224
1.13891931
1.13812702
1.13733536
1.13654307
1.13575135
1.13495906
1.13416676
1.13337511
1.13258345
1.13179237
1.13100129
1.13021027
1.12941919
1.12862875
1.12783774
1.12704729
1.12625685
1.12546641
1.12467660
1.12388623
1.12309636
1.12230655
1.12151675
1.12072759
1.11993778
1.11914862
1.11835939
1.11757022
1.11678169
1.11599374
1.11520515
1.11441662
1.11362803
1.11283950
1.11205155
1.11126360
1.11047571
1.10968840
1.10890108
1.10811313
1.10732581
1.10653850
1.10575119
1.10496515
1.10417841
1.10339173
1.10260506
1.10181959
1.10103292
1.10024681
1.09946014
1.09867531
1.09788928
1.09710317
1.09631777
1.09553295
1.09474749
1.09396266
1.09317784
1.09239301
1.09160819
1.09082400
1.09003918
1.08925499
1.08847144
1.08768725
1.08690307
1.08611946
1.08533591
1.08455293
1.08376938
1.08298641
1.08220286
1.08141989
1.08063755
1.07985401
1.07907231
1.07828933
1.07750764
1.07672466
1.07594360
1.07516127
1.07437957
1.07359787
1.07281682
1.07203448
1.07125400
1.07047230
1.06969188
1.06891139
1.06812970
1.06734985
1.06656879
1.06578895
1.06500910
1.06422804
1.06344883
1.06266835
1.06188914
1.06110993
1.06032951
1.05955088
1.05877167
1.05799247
1.05721390
1.05643533
1.05565612
1.05487755
1.05409956
1.05332162
1.05254242
1.05176506
1.05098707
1.05020977
1.04943114
1.04865442
1.04787713
1.04709977
1.04632305
1.04554506
1.04476898
1.04399226
1.04321554
1.04243946
1.04166338
1.04088603
1.04011059
1.03933444
1.03855900
1.03778356
1.03700805
1.03623261
1.03545711
1.03468230
1.03390616
1.03313136
1.03235713
1.03158226
1.03080803
1.03003323
1.02925900
1.02848541
1.02771118
1.02693753
1.02616336
1.02538971
1.02461612
1.02384317
1.02306958
1.02229656
1.02152361
1.02075066
1.01997892
1.01920590
1.01843359
1.01766121
1.01688890
1.01611652
1.01534478
1.01457247
1.01380073
1.01303020
1.01225852
1.01148736
1.01071568
1.00994458
1.00917342
1.00840360
1.00763249
1.00686203
1.00609151
1.00532104
1.00455115
1.00378133
1.00301080
1.00224098
1.00147173
1.00070191
0.99993266
0.99916404
0.99839480
0.99762491
0.99685630
0.99608768
0.99531907
0.99455046
0.99378249
0.99301388
0.99224654
0.99147793
0.99070989
0.98994256
0.98917459
0.98840655
0.98763985
0.98687245
0.98610569
0.98533836
0.98457224
0.98380490
0.98303878
0.98227202
0.98150526
0.98073914
0.97997302
0.97920753
0.97844077
0.97767593
0.97690981
0.97614496
0.97538005
0.97461393
0.97384972
0.97308418
0.97231933
0.97155448
0.97079021
0.97002594
0.96926110
0.96849747
0.96773256
0.96696899
0.96620536
0.96544108
0.96467809
0.96391510
0.96315083
0.96238783
0.96162548
0.96086184
0.96009942
0.95933707
0.95857344
0.95781172
0.95704930
0.95628758
0.95552452
0.95476281
0.95400166
0.95323988
0.95247753
0.95171638
0.95095524
0.95019416
0.94943366
0.94867188
0.94791137
0.94715087
0.94639036
0.94562986
0.94486993
0.94410942
0.94334892
0.94258905
0.94182919
0.94106989
0.94031003
0.93955074
0.93879151
0.93803222
0.93727356
0.93651433
0.93575568
0.93499703
0.93423844
0.93348042
0.93272113
0.93196312
0.93120510
0.93044772
0.92968971
0.92893233
0.92817489
0.92741751
0.92666014
0.92590276
0.92514532
0.92438858
0.92363184
0.92287504
0.92211830
0.92136150
0.92060534
0.91984987
0.91909371
0.91833755
0.91758138
0.91682586
0.91607039
0.91531423
0.91455992
0.91380439
0.91304951
0.91229398
0.91153909
0.91078484
0.91003053
0.90927564
0.90852139
0.90776772
0.90701347
0.90625916
0.90550491
0.90475187
0.90399820
0.90324459
0.90249155
0.90173788
0.90098484
0.90023244
0.89947941
0.89872580
0.89797397
0.89722100
0.89646854
0.89571678
0.89496438
0.89421320
0.89346080
0.89270840
0.89195728
0.89120546
0.89045491
0.88970315
0.88895260
0.88820084
0.88744966
0.88669975
0.88594863
0.88519808
0.88444754
0.88369763
0.88294708
0.88219717
0.88144726
0.88069799
0.87994872
0.87919818
0.87844948
0.87769957
0.87695094
0.87620103
0.87545298
0.87470428
0.87395501
0.87320695
0.87245896
0.87170963
0.87096221
0.87021358
0.86946552
0.86871810
0.86797004
0.86722262
0.86647520
0.86572842
0.86498037
0.86423359
0.86348681
0.86273939
0.86199261
0.86124640
0.86050026
0.85975348
0.85900727
0.85826113
0.85751556
0.85676999
0.85602321
0.85527765
0.85453214
0.85378721
0.85304228
0.85229735
0.85155121
0.85080628
0.85006193
0.84931706
0.84857271
0.84782842
0.84708412
0.84634047
0.84559618
0.84485246
0.84410753
0.84336388
0.84262080
0.84187715
0.84113407
0.84039042
0.83964734
0.83890490
0.83816189
0.83741881
0.83667637
0.83593393
0.83519155
0.83444911
0.83370731
0.83296487
0.83222428
0.83148248
0.83074068
0.82999888
0.82925771
0.82851585
0.82777469
0.82703352
0.82629293
0.82555177
0.82481182
0.82407130
0.82333071
0.82259012
0.82184959
0.82110964
0.82037033
0.81963038
0.81889043
0.81815054
0.81741181
0.81667249
0.81593261
0.81519323
0.81445520
0.81371588
0.81297721
0.81223790
0.81150044
0.81076176
0.81002303
0.80928563
0.80854753
0.80780886
0.80707203
0.80633393
0.80559590
0.80485908
0.80412161
0.80338415
0.80264739
0.80190993
0.80117375
0.80043693
0.79969947
0.79896386
0.79822703
0.79749149
0.79675466
0.79601912
0.79528287
0.79454796
0.79381178
0.79307681
0.79234062
0.79160565
0.79087011
0.79013577
0.78940016
0.78866583
0.78793092
0.78719659
0.78646162
0.78572728
0.78499295
0.78425926
0.78352556
0.78279123
0.78205753
0.78132448
0.78059014
0.77985702
0.77912333
0.77839027
0.77765779
0.77692410
0.77619161
0.77545920
0.77472607
0.77399429
0.77326181
0.77252997
0.77179755
0.77106571
0.77033386
0.76960266
0.76887018
0.76813897
0.76740777
0.76667656
0.76594472
0.76521415
0.76448352
0.76375295
0.76302239
0.76229118
0.76156055
0.76083062
0.76010063
0.75937070
0.75864071
0.75791078
0.75718142
0.75645086
0.75572150
0.75499215
0.75426279
0.75353408
0.75280472
0.75207601
0.75134729
0.75061858
0.74988986
0.74916178
0.74843371
0.74770499
0.74697749
0.74624941
0.74552133
0.74479383
0.74406575
0.74333831
0.74261081
0.74188394
0.74115651
0.74042964
0.73970220
0.73897534
0.73824911
0.73752288
0.73679666
0.73606979
0.73534363
0.73461740
0.73389175
0.73316553
0.73244058
0.73171499
0.73098940
0.73026375
0.72953816
0.72881257
0.72808820
0.72736325
0.72663830
0.72591328
0.72518955
0.72446460
0.72374022
0.72301591
0.72229217
0.72156844
0.72084406
0.72012096
0.71939723
0.71867285
0.71794918
0.71722665
0.71650356
0.71577982
0.71505736
0.71433426
0.71361237
0.71288928
0.71216618
0.71144493
0.71072183
0.71000058
0.70927812
0.70855560
0.70783435
0.70711253
0.70639128
0.70566940
0.70494879
0.70422697
0.70350636
0.70278511
0.70206450
0.70134325
0.70062328
0.69990203
0.69918206
0.69846145
0.69774142
0.69702145
0.69630148
0.69558208
0.69486211
0.69414272
0.69342274
0.69270399
0.69198465
0.69126526
0.69054650
0.68982717
0.68910841
0.68839029
0.68767096
0.68695284
0.68623472
0.68551596
0.68479848
0.68408036
0.68336281
0.68264470
0.68192721
0.68120973
0.68049161
0.67977471
0.67905786
0.67834096
0.67762411
0.67690663
0.67619036
0.67547352
0.67475725
0.67404098
0.67332414
0.67260787
0.67189224
0.67117661
0.67046098
0.66974535
0.66902915
0.66831352
0.66759846
0.66688290
0.66616784
0.66545349
0.66473849
0.66402350
0.66330909
0.66259473
0.66188031
0.66116596
0.66045161
0.65973783
0.65902348
0.65830970
0.65759592
0.65688220
0.65616906
0.65545528
0.65474214
0.65402900
0.65331586
0.65260278
0.65189022
0.65117714
0.65046458
0.64975207
0.64903957
0.64832707
0.64761457
0.64690328
0.64619141
0.64547955
0.64476762
0.64405576
0.64334453
0.64263388
0.64192259
0.64121136
0.64050008
0.63978879
0.63907877
0.63836819
0.63765690
0.63694625
0.63623559
0.63552622
0.63481621
0.63410556
0.63339618
0.63268617
0.63197679
0.63126678
0.63055798
0.62984797
0.62913859
0.62843043
0.62772106
0.62701162
0.62630352
0.62559472
0.62488656
0.62417782
0.62346902
0.62276150
0.62205340
0.62134588
0.62063772
0.61992956
0.61922203
0.61851451
0.61780762
0.61709946
0.61639322
0.61568569
0.61497881
0.61427186
0.61356561
0.61285809
0.61215242
0.61144553
0.61073928
0.61003297
0.60932730
0.60862042
0.60791538
0.60720977
0.60650346
0.60579843
0.60509276
0.60438779
0.60368275
0.60297708
0.60227269
0.60156701
0.60086262
0.60015822
0.59945319
0.59874937
0.59804561
0.59734122
0.59663682
0.59593300
0.59522924
0.59452548
0.59382166
0.59311854
0.59241536
0.59171160
0.59100842
0.59030588
0.58960269
0.58889958
0.58819703
0.58749449
0.58679194
0.58609004
0.58538749
0.58468495
0.58398304
0.58328114
0.58257923
0.58187796
0.58117669
0.58047472
0.57977282
0.57907155
0.57837086
0.57766959
0.57696896
0.57626827
0.57556757
0.57486694
0.57416625
0.57346620
0.57276557
0.57206551
0.57136546
0.57066547
0.56996605
0.56926599
0.56856658
0.56786716
0.56716774
0.56646833
0.56576891
0.56507007
0.56437065
0.56367187
0.56297310
0.56227553
0.56157675
0.56087791
0.56017977
0.55948157
0.55878343
0.55808522
0.55738708
0.55669016
0.55599259
0.55529509
0.55459752
0.55389996
0.55320303
0.55250610
0.55180918
0.55111161
0.55041469
0.54971903
0.54902211
0.54832582
0.54762889
0.54693318
0.54623689
0.54554124
0.54484552
0.54414987
0.54345358
0.54275851
0.54206286
0.54136778
0.54067271
0.53997769
0.53928198
0.53858754
0.53789253
0.53719867
0.53650366
0.53580858
0.53511478
0.53442034
0.53372718
0.53303274
0.53233831
0.53164508
0.53095071
0.53025748
0.52956368
0.52887110
0.52817730
0.52748478
0.52679098
0.52609839
0.52540523
0.52471328
0.52402006
0.52332817
0.52263622
0.52194300
0.52125169
0.52055917
0.51986722
0.51917591
0.51848332
0.51779201
0.51710006
0.51640939
0.51571808
0.51502677
0.51433546
0.51364537
0.51295342
0.51226338
0.51157265
0.51088198
0.51019131
0.50950121
0.50881175
0.50812108
0.50743105
0.50674159
0.50605213
0.50536146
0.50467200
0.50398318
0.50329372
0.50260369
0.50191499
0.50122617
0.50053735
0.49984917
0.49916035
0.49847089
0.49778271
0.49709446
0.49640628
0.49571810
0.49503049
0.49434231
0.49365477
0.49296716
0.49227898
0.49159137
0.49090383
0.49021686
0.48952995
0.48884298
0.48815601
0.48746905
0.48678214
0.48609581
0.48540884
0.48472251
0.48403618
0.48334985
0.48266415
0.48197782
0.48129213
0.48060644
0.47992068
0.47923499
0.47854994
0.47786482
0.47717976
0.47649407
0.47580895
0.47512390
0.47443942
0.47375437
0.47307052
0.47238604
0.47170163
0.47101715
0.47033267
0.46964825
0.46896505
0.46828121
0.46759737
0.46691353
0.46622968
0.46554712
0.46486328
0.46418008
0.46349687
0.46281424
0.46213104
0.46144848
0.46076585
0.46008328
0.45940072
0.45871873
0.45803616
0.45735353
0.45667218
0.45599026
0.45530827
0.45462691
0.45394499
0.45326300
0.45258228
0.45190036
0.45121964
0.45053829
0.44985694
0.44917687
0.44849551
0.44781537
0.44713466
0.44645459
0.44577387
0.44509380
0.44441366
0.44373422
0.44305351
0.44237401
0.44169393
0.44101507
0.44033499
0.43965613
0.43897606
0.43829719
0.43761776
0.43693953
0.43626067
0.43558181
0.43490295
0.43422415
0.43354592
0.43286827
0.43218948
0.43151125
0.43083360
0.43015538
0.42947779
0.42880021
0.42812262
0.42744497
0.42676802
0.42608980
0.42541343
0.42473648
