corrn_curve_linear
1.62931042
1.62847091
1.62763024
1.62679072
1.62595005
1.62511060
1.62427109
1.62343163
1.62259212
1.62175261
1.62091431
1.62007486
1.61923656
1.61839705
1.61755875
1.61672045
1.61588215
1.61504385
1.61420671
1.61336841
1.61253133
1.61169303
1.61085711
1.61001996
1.60918288
1.60834574
1.60750860
1.60667267
1.60583559
1.60499966
1.60416373
1.60332781
1.60249188
1.60165595
1.60082118
1.59998525
1.59915054
1.59831583
1.59747991
1.59664513
1.59581042
1.59497687
1.59414210
1.59330738
1.59247383
1.59164027
1.59080672
1.58997195
1.58913961
1.58830605
1.58747249
1.58664015
1.58580660
1.58497420
1.58414186
1.58330952
1.58247712
1.58164478
1.58081238
1.57998004
1.57915007
1.57831767
1.57748648
1.57665530
1.57582296
1.57499299
1.57416180
1.57333183
1.57250065
1.57167062
1.57084065
1.57001068
1.56918065
1.56835068
1.56752071
1.56669190
1.56586187
1.56503312
1.56420430
1.56337549
1.56254552
1.56171786
1.56088911
1.56006029
1.55923148
1.55840388
1.55757744
1.55674862
1.55592103
1.55509343
1.55426577
1.55343933
1.55261173
1.55178529
1.55095890
1.55013185
1.54930541
1.54847958
1.54765259
1.54682736
1.54600152
1.54517630
1.54434985
1.54352463
1.54269934
1.54187350
1.54104889
1.54022421
1.53940019
1.53857551
1.53775029
1.53692622
1.53610220
1.53527874
1.53445467
1.53363060
1.53280713
1.53198373
1.53116081
1.53033796
1.52951510
1.52869103
1.52786878
1.52704592
1.52622362
1.52540198
1.52457967
1.52375803
1.52293633
1.52211469
1.52129298
1.52047189
1.51965019
1.51882855
1.51800746
1.51718697
1.51636588
1.51554540
1.51472491
1.51390503
1.51308449
1.51226461
1.51144589
1.51062601
1.50980668
1.50898741
1.50816808
1.50734881
1.50652948
1.50571076
1.50489210
1.50407338
1.50325466
1.50243654
1.50161904
1.50080147
1.49998336
1.49916524
1.49834774
1.49753023
1.49671388
1.49589637
1.49507941
1.49426251
1.49344556
1.49262981
1.49181291
1.49099656
1.49018021
1.48936392
1.48854873
1.48773298
1.48691724
1.48610271
1.48528697
1.48447184
1.48365670
1.48284211
1.48202759
1.48121245
1.48039847
1.47958388
1.47876996
1.47795659
1.47714200
1.47632924
1.47551532
1.47470134
1.47388858
1.47307520
1.47226183
1.47144968
1.47063630
1.46982469
1.46901132
1.46819977
1.46738756
1.46657601
1.46576325
1.46495224
1.46414003
1.46332903
1.46251748
1.46170709
1.46089548
1.46008508
1.45927347
1.45846369
1.45765269
1.45684290
1.45603190
1.45522272
1.45441288
1.45360249
1.45279331
1.45198346
1.45117429
1.45036566
1.44955587
1.44874724
1.44793922
1.44712998
1.44632196
1.44551394
1.44470476
1.44389734
1.44308932
1.44228130
1.44147383
1.44066641
1.43985960
1.43905158
1.43824472
1.43743791
1.43663165
1.43582424
1.43501798
1.43421172
1.43340546
1.43259865
1.43179300
1.43098735
1.43018170
1.42937666
1.42857101
1.42776535
1.42696031
1.42615527
1.42535077
1.42454634
1.42374184
1.42293741
1.42213291
1.42132908
1.42052404
1.41972015
1.41891687
1.41811298
1.41730976
1.41650648
1.41570381
1.41490053
1.41409786
1.41329513
1.41249245
1.41168978
1.41088772
1.41008505
1.40928292
1.40848146
1.40767934
1.40687788
1.40607637
1.40527491
1.40447339
1.40367309
1.40287218
1.40207127
1.40127036
1.40047006
1.39966976
1.39886885
1.39806855
1.39726947
1.39646977
1.39567002
1.39487033
1.39407063
1.39327088
1.39247295
1.39167325
1.39087472
1.39007563
1.38927649
1.38847916
1.38768062
1.38688215
1.38608361
1.38528629
1.38448836
1.38369043
1.38289365
1.38209633
1.38129840
1.38050223
1.37970491
1.37890813
1.37811203
1.37731525
1.37651854
1.37572237
1.37492620
1.37413010
1.37333454
1.37253837
1.37174342
1.37094786
1.37015169
1.36935735
1.36856179
1.36776739
1.36697244
1.36617809
1.36538314
1.36458874
1.36379500
1.36300060
1.36220686
1.36141246
1.36061927
1.35982554
1.35903235
1.35823977
1.35744597
1.35665339
1.35586020
1.35506762
1.35427504
1.35348307
1.35269104
1.35189785
1.35110648
1.35031390
1.34952248
1.34873166
1.34793908
1.34714826
1.34635745
1.34556547
1.34477527
1.34398445
1.34319308
1.34240287
1.34161321
1.34082185
1.34003225
1.33924258
1.33845298
1.33766277
1.33687317
1.33608412
1.33529513
1.33450492
1.33371647
1.33292742
1.33213903
1.33135058
1.33056092
1.32977314
1.32898470
1.32819686
1.32740902
1.32662179
1.32583335
1.32504551
1.32425828
1.32347099
1.32268436
1.32189713
1.32111045
1.32032383
1.31953714
1.31875113
1.31796384
1.31717782
1.31639175
1.31560567
1.31481966
1.31403419
1.31324872
1.31246326
1.31167779
1.31089293
1.31010807
1.30932321
1.30853829
1.30775343
1.30696918
1.30618548
1.30540183
1.30461752
1.30383327
1.30304957
1.30226592
1.30148222
1.30069851
1.29991542
1.29913238
1.29834989
1.29756680
1.29678431
1.29600121
1.29521872
1.29443624
1.29365490
1.29287302
1.29209053
1.29130859
1.29052671
1.28974599
1.28896472
1.28818277
1.28740150
1.28662138
1.28584005
1.28505933
1.28427860
1.28349848
1.28271837
1.28193770
1.28115813
1.28037801
1.27959790
1.27881900
1.27803942
1.27725931
1.27648101
1.27570144
1.27492193
1.27414358
1.27336468
1.27258693
1.27180797
1.27102907
1.27025132
1.26947297
1.26869583
1.26791748
1.26714034
1.26636259
1.26558545
1.26480771
1.26403118
1.26325398
1.26247745
1.26170031
1.26092432
1.26014719
1.25937120
1.25859467
1.25781869
1.25704216
1.25626678
1.25549202
1.25471542
1.25394066
1.25316467
1.25238991
1.25161575
1.25083976
1.25006560
1.24929023
1.24851601
1.24774246
1.24696769
1.24619347
1.24541992
1.24464570
1.24387215
1.24309853
1.24232553
1.24155198
1.24077897
1.24000597
1.23923236
1.23845996
1.23768756
1.23691517
1.23614277
1.23536977
1.23459798
1.23382619
1.23305495
1.23228316
1.23151076
1.23073952
1.22996834
1.22919710
1.22842647
1.22765529
1.22688405
1.22611341
1.22534284
1.22457281
1.22380218
1.22303215
1.22226213
1.22149271
1.22072269
1.21995321
1.21918379
1.21841437
1.21764550
1.21687548
1.21610667
1.21533780
1.21456899
1.21380012
1.21303192
1.21226426
1.21149600
1.21072774
1.20996008
1.20919243
1.20842423
1.20765712
1.20688947
1.20612181
1.20535476
1.20458772
1.20382067
1.20305362
1.20228773
1.20152129
1.20075480
1.19998836
1.19922247
1.19845603
1.19769014
1.19692485
1.19615902
1.19539374
1.19462785
1.19386256
1.19309850
1.19233321
1.19156793
1.19080325
1.19003913
1.18927445
1.18851038
1.18774571
1.18698219
1.18621812
1.18545405
1.18469114
1.18392701
1.18316355
1.18240064
1.18163712
1.18087427
1.18011190
1.17934844
1.17858553
1.17782383
1.17706092
1.17629922
1.17553692
1.17477455
1.17401286
1.17325116
1.17249001
1.17172831
1.17096723
1.17020547
1.16944438
1.16868384
1.16792214
1.16716221
1.16640106
1.16564113
1.16488004
1.16412065
1.16336017
1.16260024
1.16184085
1.16108092
1.16032159
1.15956166
1.15880294
1.15804301
1.15728423
1.15652606
1.15576673
1.15500801
1.15424924
1.15349113
1.15273296
1.15197418
1.15121661
1.15045911
1.14970094
1.14894338
1.14818643
1.14742826
1.14667130
1.14591435
1.14515739
1.14439983
1.14364342
1.14288707
1.14213067
1.14137371
1.14061797
1.13986217
1.13910638
1.13835064
1.13759423
1.13683849
1.13608330
1.13532811
1.13457292
1.13381712
1.13306253
1.13230734
1.13155276
1.13079878
1.13004420
1.12929016
1.12853558
1.12778100
1.12702702
1.12627304
1.12551962
1.12476619
1.12401282
1.12325939
1.12250657
1.12175320
1.12100038
1.12024756
1.11949474
1.11874253
1.11798977
1.11723750
1.11648528
1.11573307
1.11498147
1.11422925
1.11347765
1.11272598
1.11197438
1.11122338
1.11047293
1.10972187
1.10897088
1.10821982
1.10746882
1.10671837
1.10596792
1.10521754
1.10446769
1.10371785
1.10296740
1.10221756
1.10146772
1.10071788
1.09996925
1.09921996
1.09847072
1.09772149
1.09697341
1.09622418
1.09547549
1.09472626
1.09397879
1.09323016
1.09248148
1.09173346
1.09098599
1.09023791
1.08949044
1.08874297
1.08799550
1.08724803
1.08650116
1.08575369
1.08500683
1.08426058
1.08351371
1.08276685
1.08202054
1.08127428
1.08052857
1.07978232
1.07903661
1.07829036
1.07754465
1.07679955
1.07605329
1.07530880
1.07456309
1.07381860
1.07307290
1.07232901
1.07158391
1.07083942
1.07009493
1.06935105
1.06860595
1.06786261
1.06711812
1.06637484
1.06563151
1.06488701
1.06414428
1.06340040
1.06265767
1.06191494
1.06117106
1.06042894
1.05968560
1.05894348
1.05820136
1.05745809
1.05671651
1.05597439
1.05523227
1.05449076
1.05374925
1.05300713
1.05226561
1.05152465
1.05078374
1.05004162
1.04930126
1.04856030
1.04782000
1.04707843
1.04633868
1.04559838
1.04485802
1.04411827
1.04337731
1.04263817
1.04189842
1.04115867
1.04041953
1.03968038
1.03894003
1.03820149
1.03746229
1.03672376
1.03598522
1.03524663
1.03450809
1.03376950
1.03303157
1.03229237
1.03155445
1.03081707
1.03007908
1.02934170
1.02860378
1.02786640
1.02712963
1.02639225
1.02565542
1.02491810
1.02418127
1.02344450
1.02270833
1.02197156
1.02123534
1.02049918
1.01976301
1.01902801
1.01829178
1.01755623
1.01682061
1.01608506
1.01534944
1.01461443
1.01387888
1.01314387
1.01241002
1.01167507
1.01094061
1.01020566
1.00947126
1.00873680
1.00800362
1.00726922
1.00653543
1.00580158
1.00506778
1.00433454
1.00360136
1.00286750
1.00213432
1.00140168
1.00066850
0.99993586
0.99920383
0.99847120
0.99773795
0.99700592
0.99627389
0.99554187
0.99480984
0.99407842
0.99334639
0.99261557
0.99188355
0.99115206
0.99042125
0.98968983
0.98895835
0.98822814
0.98749727
0.98676700
0.98603619
0.98530653
0.98457572
0.98384606
0.98311580
0.98238553
0.98165587
0.98092622
0.98019717
0.97946690
0.97873846
0.97800880
0.97728036
0.97655186
0.97582220
0.97509436
0.97436525
0.97363681
0.97290837
0.97218048
0.97145258
0.97072414
0.96999685
0.96926835
0.96854112
0.96781384
0.96708594
0.96635926
0.96563258
0.96490469
0.96417801
0.96345194
0.96272465
0.96199852
0.96127245
0.96054516
0.95981970
0.95909357
0.95836811
0.95764137
0.95691590
0.95619099
0.95546546
0.95473939
0.95401448
0.95328956
0.95256471
0.95184040
0.95111488
0.95039057
0.94966626
0.94894195
0.94821764
0.94749388
0.94676958
0.94604527
0.94532157
0.94459787
0.94387472
0.94315102
0.94242786
0.94170477
0.94098162
0.94025907
0.93953598
0.93881344
0.93809089
0.93736841
0.93664647
0.93592332
0.93520138
0.93447945
0.93375812
0.93303618
0.93231485
0.93159346
0.93087213
0.93015080
0.92942947
0.92870808
0.92798736
0.92726664
0.92654586
0.92582514
0.92510436
0.92438418
0.92366468
0.92294451
0.92222433
0.92150416
0.92078459
0.92006509
0.91934491
0.91862650
0.91790694
0.91718798
0.91646841
0.91574946
0.91503111
0.91431269
0.91359374
0.91287539
0.91215758
0.91143923
0.91072082
0.91000247
0.90928528
0.90856748
0.90784973
0.90713254
0.90641474
0.90569754
0.90498095
0.90426376
0.90354602
0.90282998
0.90211284
0.90139620
0.90068022
0.89996363
0.89924820
0.89853161
0.89781502
0.89709965
0.89638361
0.89566879
0.89495281
0.89423799
0.89352201
0.89280658
0.89209236
0.89137699
0.89066217
0.88994734
0.88923313
0.88851830
0.88780409
0.88708987
0.88637626
0.88566265
0.88494783
0.88423477
0.88352055
0.88280755
0.88209334
0.88138088
0.88066782
0.87995422
0.87924176
0.87852937
0.87781570
0.87710386
0.87639086
0.87567840
0.87496656
0.87425411
0.87354226
0.87283042
0.87211918
0.87140673
0.87069549
0.86998425
0.86927241
0.86856117
0.86785048
0.86713985
0.86642862
0.86571793
0.86500730
0.86429721
0.86358713
0.86287590
0.86216581
0.86145579
0.86074632
0.86003685
0.85932737
0.85861674
0.85790727
0.85719834
0.85648893
0.85578000
0.85507114
0.85436227
0.85365401
0.85294515
0.85223683
0.85152735
0.85081910
0.85011138
0.84940313
0.84869542
0.84798716
0.84727945
0.84657234
0.84586469
0.84515698
0.84444988
0.84374278
0.84303573
0.84232863
0.84162214
0.84091503
0.84020969
0.83950320
0.83879670
0.83809021
0.83738432
0.83667777
0.83597188
0.83526599
0.83456065
0.83385477
0.83315003
0.83244475
0.83173941
0.83103407
0.83032880
0.82962406
0.82891994
0.82821521
0.82751048
0.82680580
0.82610223
0.82539810
0.82469343
0.82398925
0.82328634
0.82258222
0.82187870
0.82117458
0.82047221
0.81976870
0.81906512
0.81836282
0.81765985
0.81695634
0.81625458
0.81555161
0.81484871
0.81414695
0.81344459
0.81274223
0.81204054
0.81133818
0.81063703
0.80993528
0.80923292
0.80853232
0.80783057
0.80713003
0.80642828
0.80572774
0.80502654
0.80432661
0.80362546
0.80292547
0.80222433
0.80152434
0.80082380
0.80012442
0.79942382
0.79872444
0.79802451
0.79732513
0.79662514
0.79592575
0.79522637
0.79452760
0.79382882
0.79312944
0.79243067
0.79173250
0.79103312
0.79033489
0.78963612
0.78893795
0.78824033
0.78754156
0.78684394
0.78614638
0.78544816
0.78475121
0.78405359
0.78335658
0.78265902
0.78196201
0.78126500
0.78056859
0.77987097
0.77917457
0.77847817
0.77778176
0.77708475
0.77638896
0.77569310
0.77499731
0.77430151
0.77360511
0.77290925
0.77221407
0.77151882
0.77082363
0.77012838
0.76943320
0.76873856
0.76804276
0.76734812
0.76665348
0.76595884
0.76526481
0.76457017
0.76387614
0.76318210
0.76248807
0.76179404
0.76110062
0.76040719
0.75971316
0.75902028
0.75832686
0.75763343
0.75694056
0.75624713
0.75555432
0.75486144
0.75416917
0.75347635
0.75278409
0.75209127
0.75139900
0.75070734
0.75001568
0.74932402
0.74863175
0.74794015
0.74724849
0.74655737
0.74586571
0.74517527
0.74448421
0.74379316
0.74310205
0.74241099
0.74171994
0.74103004
0.74033960
0.73964915
0.73895865
0.73826936
0.73757891
0.73688901
0.73619918
0.73550989
0.73482060
0.73413070
0.73344202
0.73275273
0.73206283
0.73137360
0.73068546
0.72999678
0.72930749
0.72861942
0.72793073
0.72724321
0.72655453
0.72586584
0.72517892
0.72449024
0.72380332
0.72311525
0.72242711
0.72174019
0.72105273
0.72036581
0.71967828
0.71899197
0.71830450
0.71761819
0.71693127
0.71624496
0.71555804
0.71487234
0.71418542
0.71349972
0.71281341
0.71212764
0.71144194
0.71075624
0.71007108
0.70938538
0.70870022
0.70801452
0.70732997
0.70664488
0.70595972
0.70527517
0.70459008
0.70390553
0.70322159
0.70253649
0.70185255
0.70116861
0.70048406
0.69980073
0.69911679
0.69843340
0.69774946
0.69706613
0.69638279
0.69569885
0.69501607
0.69433334
0.69365056
0.69296784
0.69228450
0.69160233
0.69091960
0.69023742
0.68955525
0.68887252
0.68819035
0.68750878
0.68682721
0.68614564
0.68546407
0.68478195
0.68410038
0.68341936
0.68273785
0.68205683
0.68137648
0.68069552
0.68001456
0.67933414
0.67865379
0.67797337
0.67729302
0.67661267
0.67593286
0.67525251
0.67457270
0.67389290
0.67321315
0.67253395
0.67185415
0.67117495
0.67049575
0.66981655
0.66913741
0.66845876
0.66777963
0.66710098
0.66642239
0.66574379
0.66506520
0.66438661
0.66370918
0.66303120
0.66235321
0.66167517
0.66099719
0.66031982
0.65964299
0.65896555
0.65828818
0.65761074
0.65693331
0.65625709
0.65558032
0.65490289
0.65422606
0.65354923
0.65287362
0.65219740
0.65152058
0.65084496
0.65016874
0.64949313
0.64881691
0.64814185
0.64746563
0.64679002
0.64611556
0.64543995
0.64476428
0.64408988
0.64341482
0.64274036
0.64206536
0.64139030
0.64071645
0.64004205
0.63936821
0.63869375
0.63801929
0.63734544
0.63667160
0.63599836
0.63532390
0.63465127
0.63397742
0.63330418
0.63263088
0.63195825
0.63128440
0.63061231
0.62993907
0.62926644
0.62859375
0.62792166
0.62724842
0.62657694
0.62590492
0.62523223
0.62456075
0.62388866
0.62321725
0.62254577
0.62187368
0.62120282
0.62053073
0.61985986
0.61918899
0.61851751
0.61784719
0.61717693
0.61650606
0.61583519
0.61516487
0.61449461
0.61382435
0.61315403
0.61248437
0.61181466
0.61114440
0.61047468
0.60980558
0.60913586
0.60846621
0.60779710
0.60712800
0.60645889
0.60579039
0.60512128
0.60445218
0.60378368
0.60311518
0.60244668
0.60177879
0.60111090
0.60044234
0.59977385
0.59910596
0.59843861
0.59777072
0.59710344
0.59643610
0.59576875
0.59510147
0.59443413
0.59376739
0.59310011
0.59243337
0.59176664
0.59109996
0.59043384
0.58976710
0.58910097
0.58843485
0.58776872
0.58710259
0.58643647
0.58577089
0.58510476
0.58443924
0.58377372
0.58310935
0.58244384
0.58177826
0.58111334
0.58044837
0.57978346
0.57911849
0.57845358
0.57778982
0.57712546
0.57646115
0.57579679
0.57513242
0.57446867
0.57380491
0.57314116
0.57247679
0.57181303
0.57115049
0.57048674
0.56982359
0.56915983
0.56849723
0.56783408
0.56717154
0.56650894
0.56584640
0.56518325
0.56452126
0.56385872
0.56319673
0.56253473
0.56187280
0.56121020
0.56054881
0.55988688
0.55922604
0.55856411
0.55790212
0.55724134
0.55657995
0.55591979
0.55525840
0.55459701
0.55393678
0.55327546
0.55261523
0.55195445
0.55129483
0.55063405
0.54997449
0.54931371
0.54865409
0.54799392
0.54733491
0.54667468
0.54601572
0.54535671
0.54469648
0.54403807
0.54337851
0.54271950
0.54206109
0.54140147
0.54074306
0.54008405
0.53942625
0.53876784
0.53810944
0.53745103
0.53679378
0.53613476
0.53547757
0.53481971
0.53416192
0.53350412
0.53284687
0.53219022
0.53153242
0.53087523
0.53021859
0.52956195
0.52890415
0.52824751
0.52759147
0.52693483
0.52627764
0.52562172
0.52496569
0.52430965
0.52365422
0.52299819
0.52234155
0.52168612
0.52103063
0.52037520
0.51971978
0.51906489
0.51840947
0.51775465
0.51709977
0.51644434
0.51578946
0.51513464
0.51448037
0.51382616
0.51317188
0.51251761
0.51186334
0.51120913
0.51055546
0.50990119
0.50924753
0.50859386
0.50794020
0.50728714
0.50663348
0.50598042
0.50532736
0.50467425
0.50402119
0.50336874
0.50271623
0.50206378
0.50141073
0.50075822
0.50010577
0.49945387
0.49880142
0.49815013
0.49749823
0.49684638
0.49619448
0.49554258
0.49489074
0.49424006
0.49358876
0.49293747
0.49228618
0.49163488
0.49098480
0.49033351
0.48968283
0.48903214
0.48838200
0.48773132
0.48708124
0.48643110
0.48578102
0.48513095
0.48448142
0.48383134
0.48318120
0.48253228
0.48188281
0.48123328
0.48058435
0.47993489
0.47928535
0.47863704
0.47798757
0.47733926
0.47669033
0.47604141
0.47539370
0.47474478
0.47409702
0.47344870
0.47280099
0.47215268
0.47150497
0.47085721
0.47021011
0.46956179
0.46891463
0.46826693
0.46762038
0.46697267
0.46632612
0.46567841
0.46503186
0.46438476
0.46373882
0.46309227
0.46244571
0.46179916
0.46115267
0.46050673
0.45986133
0.45921484
0.45856890
0.45792350
0.45727756
0.45663222
0.45598689
0.45534155
0.45469616
0.45405143
0.45340548
0.45276130
0.45211658
