corrn_curve_cubic
1.51125575
1.51056812
1.50987971
1.50919243
1.50850439
1.50781751
1.50713077
1.50644425
1.50575786
1.50507165
1.50438660
1.50370078
1.50301608
1.50233056
1.50164621
1.50096202
1.50027801
1.49959416
1.49891143
1.49822793
1.49754558
1.49686241
1.49618133
1.49549943
1.49481775
1.49413618
1.49345477
1.49277452
1.49209348
1.49141355
1.49073378
1.49005417
1.48937471
1.48869542
1.48801722
1.48733824
1.48666040
1.48598272
1.48530421
1.48462679
1.48394957
1.48327344
1.48259648
1.48191971
1.48124404
1.48056851
1.47989313
1.47921692
1.47854282
1.47786789
1.47719310
1.47651944
1.47584494
1.47517153
1.47449830
1.47382522
1.47315223
1.47247943
1.47180672
1.47113420
1.47046374
1.46979145
1.46912028
1.46844925
1.46777742
1.46710764
1.46643702
1.46576751
1.46509715
1.46442786
1.46375875
1.46308977
1.46242087
1.46175216
1.46108357
1.46041604
1.45974766
1.45908044
1.45841329
1.45774628
1.45707845
1.45641261
1.45574602
1.45507950
1.45441310
1.45374780
1.45308355
1.45241752
1.45175258
1.45108777
1.45042302
1.44975937
1.44909491
1.44843149
1.44776824
1.44710456
1.44644149
1.44577902
1.44511574
1.44445398
1.44379185
1.44313032
1.44246792
1.44180661
1.44114536
1.44048377
1.43982328
1.43916283
1.43850304
1.43784281
1.43718225
1.43652272
1.43586334
1.43520450
1.43454528
1.43388616
1.43322763
1.43256924
1.43191135
1.43125361
1.43059596
1.42993744
1.42928047
1.42862312
1.42796630
1.42731011
1.42665348
1.42599747
1.42534151
1.42468570
1.42402993
1.42337473
1.42271914
1.42206369
1.42140876
1.42075441
1.42009966
1.41944548
1.41879140
1.41813788
1.41748391
1.41683056
1.41617822
1.41552504
1.41487238
1.41421985
1.41356736
1.41291499
1.41226265
1.41161088
1.41095924
1.41030763
1.40965609
1.40900512
1.40835471
1.40770432
1.40705357
1.40640290
1.40575279
1.40510275
1.40445370
1.40380381
1.40315442
1.40250515
1.40185590
1.40120769
1.40055863
1.39991007
1.39926158
1.39861321
1.39796577
1.39731796
1.39667022
1.39602351
1.39537589
1.39472883
1.39408182
1.39343531
1.39278891
1.39214209
1.39149625
1.39084998
1.39020431
1.38955912
1.38891303
1.38826844
1.38762299
1.38697755
1.38633313
1.38568829
1.38504349
1.38439971
1.38375503
1.38311179
1.38246720
1.38182411
1.38118055
1.38053756
1.37989365
1.37925120
1.37860782
1.37796546
1.37732271
1.37668092
1.37603821
1.37539652
1.37475390
1.37411277
1.37347072
1.37282967
1.37218770
1.37154722
1.37090625
1.37026489
1.36962453
1.36898367
1.36834339
1.36770357
1.36706288
1.36642314
1.36578391
1.36514376
1.36450460
1.36386548
1.36322547
1.36258689
1.36194787
1.36130887
1.36067034
1.36003189
1.35939395
1.35875507
1.35811714
1.35747928
1.35684188
1.35620360
1.35556625
1.35492893
1.35429164
1.35365393
1.35301716
1.35238042
1.35174370
1.35110748
1.35047080
1.34983414
1.34919798
1.34856184
1.34792615
1.34729053
1.34665488
1.34601929
1.34538367
1.34474860
1.34411258
1.34347749
1.34284289
1.34220782
1.34157330
1.34093874
1.34030467
1.33967014
1.33903609
1.33840201
1.33776798
1.33713396
1.33650043
1.33586643
1.33523287
1.33459984
1.33396629
1.33333328
1.33270022
1.33206721
1.33143416
1.33080207
1.33016950
1.32953694
1.32890437
1.32827229
1.32764021
1.32700765
1.32637556
1.32574444
1.32511283
1.32448117
1.32384956
1.32321794
1.32258627
1.32195604
1.32132441
1.32069368
1.32006252
1.31943130
1.31880151
1.31817075
1.31754004
1.31690926
1.31627944
1.31564912
1.31501880
1.31438937
1.31375950
1.31312913
1.31250015
1.31187024
1.31124075
1.31061177
1.30998224
1.30935275
1.30872367
1.30809458
1.30746551
1.30683686
1.30620771
1.30557950
1.30495079
1.30432158
1.30369379
1.30306501
1.30243713
1.30180879
1.30118091
1.30055252
1.29992454
1.29929707
1.29866904
1.29804151
1.29741343
1.29678628
1.29615867
1.29553146
1.29490471
1.29427696
1.29365015
1.29302282
1.29239595
1.29176904
1.29114258
1.29051604
1.28988855
1.28926247
1.28863540
1.28800920
1.28738345
1.28675627
1.28613045
1.28550458
1.28487777
1.28425231
1.28362634
1.28299989
1.28237432
1.28174913
1.28112256
1.28049735
1.27987204
1.27924674
1.27862091
1.27799553
1.27737053
1.27674553
1.27611953
1.27549488
1.27486969
1.27424500
1.27362020
1.27299440
1.27237004
1.27174510
1.27112059
1.27049603
1.26987191
1.26924676
1.26862205
1.26799777
1.26737339
1.26674948
1.26612504
1.26550098
1.26487691
1.26425274
1.26362904
1.26300427
1.26238046
1.26175655
1.26113257
1.26050859
1.25988498
1.25926131
1.25863758
1.25801379
1.25739042
1.25676699
1.25614349
1.25551989
1.25489627
1.25427307
1.25365024
1.25302740
1.25240395
1.25178049
1.25115740
1.25053429
1.24991107
1.24928777
1.24866489
1.24804199
1.24741946
1.24679637
1.24617370
1.24555047
1.24492765
1.24430476
1.24368272
1.24306017
1.24243706
1.24181432
1.24119154
1.24056961
1.23994718
1.23932413
1.23870153
1.23807979
1.23745699
1.23683460
1.23621213
1.23559007
1.23496793
1.23434527
1.23372340
1.23310102
1.23247855
1.23185698
1.23123478
1.23061207
1.22999073
1.22936828
1.22874580
1.22812415
1.22750199
1.22688066
1.22625827
1.22563584
1.22501425
1.22439208
1.22377080
1.22314846
1.22252699
1.22190496
1.22128331
1.22066109
1.22003975
1.21941779
1.21879626
1.21817416
1.21755289
1.21693060
1.21630913
1.21568714
1.21506549
1.21444330
1.21382194
1.21320098
1.21257845
1.21195729
1.21133505
1.21071369
1.21009272
1.20947018
1.20884901
1.20822676
1.20760534
1.20698435
1.20636228
1.20574055
1.20511925
1.20449731
1.20387580
1.20325414
1.20263287
1.20201105
1.20138956
1.20076796
1.20014577
1.19952445
1.19890302
1.19828148
1.19765983
1.19703758
1.19641621
1.19579472
1.19517356
1.19455185
1.19392953
1.19330804
1.19268648
1.19206476
1.19144341
1.19082151
1.19019944
1.18957775
1.18895599
1.18833456
1.18771252
1.18709085
1.18646907
1.18584766
1.18522564
1.18460394
1.18398217
1.18336028
1.18273871
1.18211609
1.18149433
1.18087240
1.18025039
1.17962821
1.17900645
1.17838501
1.17776296
1.17714077
1.17651896
1.17589702
1.17527451
1.17465276
1.17403044
1.17340799
1.17278590
1.17216369
1.17154135
1.17091888
1.17029722
1.16967498
1.16905256
1.16843006
1.16780787
1.16718511
1.16656266
1.16594057
1.16531790
1.16469554
1.16407255
1.16344992
1.16282815
1.16220525
1.16158222
1.16095954
1.16033717
1.15971422
1.15909162
1.15846839
1.15784596
1.15722295
1.15659980
1.15597745
1.15535396
1.15473088
1.15410811
1.15348470
1.15286169
1.15223893
1.15161514
1.15099165
1.15036901
1.14974523
1.14912230
1.14849872
1.14787495
1.14725158
1.14662807
1.14600485
1.14538104
1.14475758
1.14413342
1.14350966
1.14288619
1.14226163
1.14163837
1.14101396
1.14039039
1.13976572
1.13914230
1.13851783
1.13789365
1.13726977
1.13664528
1.13602114
1.13539635
1.13477239
1.13414729
1.13352297
1.13289900
1.13227392
1.13164919
1.13102425
1.13039969
1.12977493
1.12914951
1.12852493
1.12790024
1.12727484
1.12664978
1.12602506
1.12539917
1.12477413
1.12414892
1.12352355
1.12289751
1.12227226
1.12164690
1.12102132
1.12039513
1.11976977
1.11914420
1.11851846
1.11789261
1.11726603
1.11663984
1.11601393
1.11538786
1.11476161
1.11413469
1.11350861
1.11288186
1.11225544
1.11162935
1.11100258
1.11037610
1.10974899
1.10912171
1.10849475
1.10786763
1.10724078
1.10661376
1.10598662
1.10535924
1.10473220
1.10410453
1.10347713
1.10284956
1.10222181
1.10159439
1.10096634
1.10033851
1.09971055
1.09908241
1.09845460
1.09782610
1.09719793
1.09656952
1.09594099
1.09531278
1.09468484
1.09405621
1.09342745
1.09279846
1.09216933
1.09154048
1.09091144
1.09028226
1.08965336
1.08902427
1.08839448
1.08776502
1.08713537
1.08650553
1.08587653
1.08524677
1.08461687
1.08398679
1.08335749
1.08272702
1.08209682
1.08146598
1.08083642
1.08020570
1.07957473
1.07894414
1.07831381
1.07768278
1.07705207
1.07642116
1.07579005
1.07515875
1.07452777
1.07389608
1.07326470
1.07263365
1.07200188
1.07136991
1.07073821
1.07010636
1.06947477
1.06884252
1.06821054
1.06757789
1.06694551
1.06631343
1.06568018
1.06504822
1.06441503
1.06378267
1.06314907
1.06251682
1.06188333
1.06125015
1.06061677
1.05998370
1.05934939
1.05871638
1.05808217
1.05744880
1.05681517
1.05618034
1.05554681
1.05491209
1.05427814
1.05364398
1.05300863
1.05237458
1.05173927
1.05110480
1.05047011
1.04983423
1.04919959
1.04856427
1.04792873
1.04729351
1.04665807
1.04602190
1.04538603
1.04475042
1.04411464
1.04347761
1.04284188
1.04220540
1.04156929
1.04093186
1.04029579
1.03965902
1.03902198
1.03838525
1.03774726
1.03711061
1.03647323
1.03583562
1.03519832
1.03456079
1.03392200
1.03328456
1.03264632
1.03200844
1.03137033
1.03073195
1.03009340
1.02945457
1.02881610
1.02817629
1.02753737
1.02689870
1.02625927
1.02562015
1.02498032
1.02434074
1.02370147
1.02306144
1.02242165
1.02178122
1.02114098
1.02050056
1.01986044
1.01921957
1.01857894
1.01793813
1.01729709
1.01665683
1.01601528
1.01537408
1.01473259
1.01409093
1.01344897
1.01280732
1.01216495
1.01152283
1.01088148
1.01023895
1.00959660
1.00895359
1.00831082
1.00766777
1.00702559
1.00638212
1.00573894
1.00509547
1.00445181
1.00380840
1.00316480
1.00252037
1.00187630
1.00123246
1.00058790
0.99994358
0.99929956
0.99865476
0.99800919
0.99736444
0.99671945
0.99607422
0.99542874
0.99478356
0.99413759
0.99349246
0.99284601
0.99219980
0.99155393
0.99090728
0.99026033
0.98961426
0.98896735
0.98832074
0.98767339
0.98702682
0.98637898
0.98573192
0.98508406
0.98443596
0.98378814
0.98314008
0.98249231
0.98184320
0.98119547
0.98054640
0.97989817
0.97924963
0.97859980
0.97795135
0.97730151
0.97665201
0.97600226
0.97535274
0.97470297
0.97405246
0.97340272
0.97275164
0.97210144
0.97145093
0.97079963
0.97014915
0.96949842
0.96884634
0.96819510
0.96754414
0.96689183
0.96624030
0.96558856
0.96493547
0.96428376
0.96363119
0.96297896
0.96232533
0.96167257
0.96102005
0.96036672
0.95971264
0.95905933
0.95840576
0.95775198
0.95709844
0.95644353
0.95578945
0.95513511
0.95448050
0.95382563
0.95317099
0.95251559
0.95185992
0.95120453
0.95054888
0.94989345
0.94923727
0.94858131
0.94792513
0.94726864
0.94661242
0.94595544
0.94529869
0.94464167
0.94398443
0.94332742
0.94266903
0.94201147
0.94135365
0.94069611
0.94003774
0.93937965
0.93872123
0.93806260
0.93740369
0.93674451
0.93608500
0.93542583
0.93476638
0.93410659
0.93344659
0.93278626
0.93212621
0.93146649
0.93080589
0.93014500
0.92948384
0.92882296
0.92816186
0.92749986
0.92683921
0.92617721
0.92551550
0.92485294
0.92419066
0.92352867
0.92286633
0.92220321
0.92154037
0.92087776
0.92021435
0.91955061
0.91888664
0.91822345
0.91755942
0.91689516
0.91623113
0.91556624
0.91490164
0.91423731
0.91357214
0.91290617
0.91224149
0.91157551
0.91090970
0.91024422
0.90957789
0.90891235
0.90824544
0.90757824
0.90691189
0.90624463
0.90557821
0.90491042
0.90424342
0.90357506
0.90290691
0.90223961
0.90157094
0.90090249
0.90023374
0.89956528
0.89889595
0.89822689
0.89755755
0.89688848
0.89621912
0.89554832
0.89487889
0.89420807
0.89353811
0.89286670
0.89219666
0.89152574
0.89085402
0.89018309
0.88951192
0.88883925
0.88816800
0.88749537
0.88682295
0.88615081
0.88547779
0.88480505
0.88413201
0.88345925
0.88278504
0.88211168
0.88143801
0.88076347
0.88008921
0.87941516
0.87874087
0.87806570
0.87739075
0.87671555
0.87604057
0.87536529
0.87468860
0.87401271
0.87333658
0.87266066
0.87198443
0.87130791
0.87062997
0.86995283
0.86927591
0.86859821
0.86792068
0.86724289
0.86656480
0.86588699
0.86520828
0.86452979
0.86384988
0.86317083
0.86249200
0.86181233
0.86113288
0.86045260
0.85977253
0.85909273
0.85841210
0.85773109
0.85705036
0.85636932
0.85568803
0.85500636
0.85432497
0.85364268
0.85296178
0.85227945
0.85159681
0.85091385
0.85023117
0.84954752
0.84886421
0.84818058
0.84749717
0.84681291
0.84612945
0.84544515
0.84476047
0.84407548
0.84339023
0.84270519
0.84202042
0.84133475
0.84064876
0.83996250
0.83927700
0.83859064
0.83790343
0.83721638
0.83653025
0.83584261
0.83515525
0.83446697
0.83378010
0.83309177
0.83240306
0.83171528
0.83102653
0.83033691
0.82964870
0.82895897
0.82826898
0.82757980
0.82688970
0.82619928
0.82550919
0.82481811
0.82412791
0.82343678
0.82274473
0.82205409
0.82136199
0.82067075
0.81997800
0.81928611
0.81859324
0.81790130
0.81720783
0.81651518
0.81582105
0.81512774
0.81443356
0.81374019
0.81304529
0.81235126
0.81165636
0.81096168
0.81026606
0.80957071
0.80887503
0.80817962
0.80748389
0.80678721
0.80609081
0.80539468
0.80469701
0.80400016
0.80330242
0.80260496
0.80190772
0.80120898
0.80051106
0.79981287
0.79911368
0.79841543
0.79771617
0.79701719
0.79631732
0.79561767
0.79491767
0.79421796
0.79351668
0.79281629
0.79211556
0.79141449
0.79071247
0.79001134
0.78930980
0.78860799
0.78790584
0.78720274
0.78649985
0.78579730
0.78509434
0.78439110
0.78368746
0.78298355
0.78227984
0.78157462
0.78087023
0.78016550
0.77946043
0.77875563
0.77804987
0.77734438
0.77663855
0.77593238
0.77522586
0.77451962
0.77381303
0.77310548
0.77239876
0.77169114
0.77098317
0.77027541
0.76956675
0.76885836
0.76814957
0.76744104
0.76673162
0.76602240
0.76531228
0.76460236
0.76389273
0.76318274
0.76247241
0.76176110
0.76105013
0.76033875
0.75962758
0.75891550
0.75820432
0.75749216
0.75677966
0.75606673
0.75535352
0.75463996
0.75392724
0.75321360
0.75249961
0.75178520
0.75107170
0.75035665
0.74964181
0.74892668
0.74821176
0.74749650
0.74678024
0.74606489
0.74534856
0.74463124
0.74391426
0.74319806
0.74248093
0.74176282
0.74104562
0.74032742
0.73961008
0.73889117
0.73817190
0.73745412
0.73673414
0.73601564
0.73529558
0.73457509
0.73385551
0.73313501
0.73241472
0.73169343
0.73097306
0.73025111
0.72953002
0.72880793
0.72808611
0.72736330
0.72664140
0.72591786
0.72519524
0.72447161
0.72374821
0.72302450
0.72230043
0.72157657
0.72085177
0.72012719
0.71940167
0.71867700
0.71795139
0.71722535
0.71649959
0.71577288
0.71504639
0.71432018
0.71359238
0.71286543
0.71213812
0.71140980
0.71068240
0.70995400
0.70922580
0.70849666
0.70776779
0.70703856
0.70630831
0.70557892
0.70484923
0.70411911
0.70338868
0.70265724
0.70192666
0.70119512
0.70046380
0.69973211
0.69899946
0.69826703
0.69753488
0.69680236
0.69606946
0.69533620
0.69460197
0.69386796
0.69313417
0.69239948
0.69166494
0.69093075
0.69019553
0.68945994
0.68872456
0.68798887
0.68725275
0.68651632
0.68577951
0.68504292
0.68430536
0.68356801
0.68283029
0.68209227
0.68135446
0.68061561
0.67987705
0.67913810
0.67839879
0.67765916
0.67691968
0.67617930
0.67543906
0.67469852
0.67395759
0.67321629
0.67247461
0.67173381
0.67099203
0.67024988
0.66950727
0.66876436
0.66802173
0.66727932
0.66653586
0.66579208
0.66504786
0.66430326
0.66355961
0.66281498
0.66206923
0.66132376
0.66057792
0.65983303
0.65908709
0.65834009
0.65759405
0.65684696
0.65610015
0.65535229
0.65460532
0.65385669
0.65310834
0.65236089
0.65161178
0.65086221
0.65011367
0.64936400
0.64861463
0.64786425
0.64711343
0.64636357
0.64561271
0.64486208
0.64411038
0.64335829
0.64260649
0.64185431
0.64110241
0.64034877
0.63959677
0.63884303
0.63808958
0.63733567
0.63658212
0.63582682
0.63507311
0.63431770
0.63356259
0.63280702
0.63205175
0.63129478
0.63053940
0.62978302
0.62902549
0.62826894
0.62751131
0.62675404
0.62599631
0.62523750
0.62447968
0.62372008
0.62296146
0.62220246
0.62144236
0.62068319
0.61992368
0.61916310
0.61840211
0.61764136
0.61688027
0.61611880
0.61535685
0.61459527
0.61383323
0.61307017
0.61230733
0.61154479
0.61078115
0.61001719
0.60925346
0.60848933
0.60772480
0.60696057
0.60619524
0.60542952
0.60466409
0.60389827
0.60313204
0.60236611
0.60159979
0.60083229
0.60006447
0.59929694
0.59852964
0.59776131
0.59699328
0.59622478
0.59545588
0.59468665
0.59391694
0.59314754
0.59237710
0.59160689
0.59083628
0.59006533
0.58929462
0.58852280
0.58775128
0.58697935
0.58620703
0.58543430
0.58466116
0.58388825
0.58311431
0.58234067
0.58156662
0.58079351
0.58001865
0.57924331
0.57846835
0.57769291
0.57691713
0.57614088
0.57536429
0.57458865
0.57381189
0.57303479
0.57225721
0.57147923
0.57070155
0.56992346
0.56914496
0.56836534
0.56758603
0.56680774
0.56602760
0.56524778
0.56446683
0.56368683
0.56290577
0.56212502
0.56134379
0.56056222
0.55977953
0.55899778
0.55821498
0.55743242
0.55664944
0.55586612
0.55508160
0.55429811
0.55351356
0.55272989
0.55194451
0.55115865
0.55037382
0.54958785
0.54880292
0.54801612
0.54722892
0.54644267
0.54565470
0.54486763
0.54407949
0.54329231
0.54250334
0.54171540
0.54092560
0.54013676
0.53934686
0.53855792
0.53776710
0.53697741
0.53618722
0.53539516
0.53460486
0.53381277
0.53302091
0.53222937
0.53143595
0.53064358
0.52985005
0.52905757
0.52826394
0.52746989
0.52667543
0.52588194
0.52508590
0.52429164
0.52349616
0.52270033
0.52190408
0.52110807
0.52031238
0.51951487
0.51871768
0.51792073
0.51712336
0.51632417
0.51552595
0.51472806
0.51392900
0.51312886
0.51232985
0.51153026
0.51073026
0.50993058
0.50912973
0.50832771
0.50752676
0.50672531
0.50592351
0.50512129
0.50431931
0.50351624
0.50271349
0.50191025
0.50110590
0.50030180
0.49949736
0.49869316
0.49788860
0.49708355
0.49627808
0.49547218
0.49466592
0.49385992
0.49305273
0.49224588
0.49143859
0.49063088
0.48982349
0.48901493
0.48820669
0.48739802
0.48658884
0.48577932
0.48497012
0.48416042
0.48335036
0.48253912
0.48172814
0.48091679
0.48010570
0.47929350
0.47848231
0.47766993
0.47685720
0.47604396
0.47523029
0.47441627
0.47360326
0.47278905
0.47197442
0.47115936
0.47034386
0.46952946
0.46871310
0.46789707
0.46708061
0.46626440
0.46544707
0.46463008
0.46381257
0.46299471
0.46217642
0.46135838
0.46053922
0.45971955
0.45890098
0.45808129
0.45726108
0.45644121
0.45562021
0.45479870
0.45397830
0.45315599
0.45233472
0.45151224
0.45068932
0.44986751
0.44904372
0.44822096
0.44739707
0.44657352
0.44574876
0.44492433
0.44409939
0.44327487
0.44244836
0.44162288
0.44079627
0.43997070
0.43914321
0.43831676
0.43748839
0.43666107
0.43583260
0.43500518
0.43417654
0.43334746
0.43251794
0.43168806
0.43085844
0.43002909
0.42919789
0.42836695
0.42753628
0.42670446
0.42587299
0.42504107
0.42420871
0.42337584
0.42254338
0.42170892
0.42087629
0.42004251
