corrn_curve_quartic
1.88380462
1.88118597
1.87856953
1.87596247
1.87335760
1.87076228
1.86817252
1.86558871
1.86301045
1.86043792
1.85787483
1.85531393
1.85276225
1.85021257
1.84767226
1.84513762
1.84260865
1.84008533
1.83757113
1.83505909
1.83255631
1.83005552
1.82756739
1.82508123
1.82260083
1.82012583
1.81765640
1.81519610
1.81273795
1.81028873
1.80784503
1.80540684
1.80297415
1.80054696
1.79812861
1.79571238
1.79330513
1.79090333
1.78850349
1.78611240
1.78372692
1.78135014
1.77897530
1.77660604
1.77424544
1.77189021
1.76954035
1.76719243
1.76485669
1.76252288
1.76019440
1.75787463
1.75555679
1.75324746
1.75094358
1.74864499
1.74635149
1.74406344
1.74178047
1.73950291
1.73723706
1.73496980
1.73271107
1.73045754
1.72820609
1.72596622
1.72372826
1.72149873
1.71927109
1.71705170
1.71483760
1.71262863
1.71042462
1.70822588
1.70603225
1.70384675
1.70166313
1.69948795
1.69731766
1.69515242
1.69298922
1.69083707
1.68868710
1.68654200
1.68440191
1.68226995
1.68014594
1.67802082
1.67590379
1.67379173
1.67168446
1.66958522
1.66748798
1.66539860
1.66331427
1.66123317
1.65915849
1.65709022
1.65502393
1.65296692
1.65091325
1.64886593
1.64682044
1.64478280
1.64274982
1.64072031
1.63869860
1.63668152
1.63467086
1.63266335
1.63065927
1.62866276
1.62667114
1.62468558
1.62270328
1.62072570
1.61875430
1.61678775
1.61482704
1.61287117
1.61091997
1.60897056
1.60703012
1.60509290
1.60316160
1.60123650
1.59931446
1.59739858
1.59548717
1.59358049
1.59167826
1.58978201
1.58788893
1.58600055
1.58411798
1.58224134
1.58036784
1.57850026
1.57663719
1.57478000
1.57292580
1.57107760
1.56923647
1.56739721
1.56556363
1.56373464
1.56190997
1.56008986
1.55827404
1.55646399
1.55465848
1.55285724
1.55106039
1.54926925
1.54748381
1.54570260
1.54392455
1.54215086
1.54038282
1.53861911
1.53686220
1.53510712
1.53335752
1.53161234
1.52987132
1.52813716
1.52640482
1.52467790
1.52295523
1.52123693
1.51952517
1.51781647
1.51611200
1.51441427
1.51271820
1.51102759
1.50934116
1.50766003
1.50598320
1.50430927
1.50264185
1.50097733
1.49931831
1.49766451
1.49601237
1.49436801
1.49272542
1.49108680
1.48945470
1.48782545
1.48620027
1.48458156
1.48296448
1.48135493
1.47974592
1.47814453
1.47654583
1.47495245
1.47336068
1.47177634
1.47019361
1.46861721
1.46704371
1.46547640
1.46391068
1.46235124
1.46079339
1.45924296
1.45769411
1.45615148
1.45461043
1.45307672
1.45154563
1.45001737
1.44849526
1.44697575
1.44546133
1.44395177
1.44244388
1.44094196
1.43944498
1.43794954
1.43646015
1.43497453
1.43349057
1.43201362
1.43053931
1.42906875
1.42760293
1.42614096
1.42468381
1.42322819
1.42177836
1.42033234
1.41889099
1.41745127
1.41601728
1.41458697
1.41316031
1.41173635
1.41031807
1.40890342
1.40749240
1.40608607
1.40468228
1.40328211
1.40188659
1.40049466
1.39910725
1.39772352
1.39634324
1.39496663
1.39359346
1.39222497
1.39085795
1.38949642
1.38813943
1.38678493
1.38543505
1.38408856
1.38274657
1.38140704
1.38007199
1.37874030
1.37741216
1.37608747
1.37476722
1.37344940
1.37213590
1.37082690
1.36952022
1.36821802
1.36691911
1.36562369
1.36433153
1.36304471
1.36176025
1.36047915
1.35920139
1.35792794
1.35665781
1.35539003
1.35412653
1.35286825
1.35161231
1.35035955
1.34911017
1.34786406
1.34662112
1.34538427
1.34414794
1.34291663
1.34168770
1.34046192
1.33924214
1.33802371
1.33680858
1.33559655
1.33438955
1.33318481
1.33198324
1.33078657
1.32959223
1.32840013
1.32721380
1.32602888
1.32484790
1.32367102
1.32249626
1.32132470
1.32015704
1.31899246
1.31783105
1.31667351
1.31551815
1.31436760
1.31321922
1.31207301
1.31093246
1.30979319
1.30865859
1.30752621
1.30639771
1.30527133
1.30414872
1.30303004
1.30191338
1.30080063
1.29968990
1.29858382
1.29747992
1.29637971
1.29528327
1.29418807
1.29309746
1.29200892
1.29092411
1.28984219
1.28876398
1.28768856
1.28661444
1.28554566
1.28447808
1.28341491
1.28235538
1.28129633
1.28024246
1.27919140
1.27814162
1.27709697
1.27605431
1.27501372
1.27397743
1.27294462
1.27191235
1.27088514
1.26986060
1.26883888
1.26781911
1.26680285
1.26579001
1.26477996
1.26377107
1.26276712
1.26176509
1.26076659
1.25977069
1.25877593
1.25778620
1.25679829
1.25581379
1.25483193
1.25385345
1.25287609
1.25190211
1.25093149
1.24996339
1.24899872
1.24803589
1.24707631
1.24611938
1.24516494
1.24421388
1.24326382
1.24231786
1.24137436
1.24043340
1.23949503
1.23855984
1.23762715
1.23669697
1.23576929
1.23484482
1.23392283
1.23300331
1.23208619
1.23117161
1.23026019
1.22935185
1.22844601
1.22754184
1.22664016
1.22574154
1.22484539
1.22395159
1.22306018
1.22217185
1.22128598
1.22040310
1.21952191
1.21864376
1.21776729
1.21689385
1.21602275
1.21515527
1.21428951
1.21342540
1.21256421
1.21170540
1.21085015
1.20999660
1.20914460
1.20829562
1.20745016
1.20660565
1.20576406
1.20492471
1.20408827
1.20325407
1.20242151
1.20159235
1.20076482
1.19993950
1.19911767
1.19829734
1.19747862
1.19666399
1.19585021
1.19503867
1.19423049
1.19342389
1.19262064
1.19181828
1.19101812
1.19022128
1.18942594
1.18863395
1.18784284
1.18705506
1.18626876
1.18548516
1.18470304
1.18392421
1.18314678
1.18237208
1.18159883
1.18082878
1.18005963
1.17929365
1.17852916
1.17776724
1.17700679
1.17624948
1.17549477
1.17474027
1.17398954
1.17323961
1.17249284
1.17174861
1.17100460
1.17026428
1.16952476
1.16878828
1.16805438
1.16732124
1.16659055
1.16586241
1.16513554
1.16441121
1.16368872
1.16296868
1.16225002
1.16153374
1.16081933
1.16010623
1.15939610
1.15868783
1.15798139
1.15727680
1.15657348
1.15587310
1.15517453
1.15447827
1.15378331
1.15308961
1.15239875
1.15170972
1.15102241
1.15033742
1.14965371
1.14897171
1.14829200
1.14761409
1.14693840
1.14626391
1.14559169
1.14492118
1.14425292
1.14358584
1.14292093
1.14225778
1.14159631
1.14093700
1.14027837
1.13962246
1.13896815
1.13831556
1.13766457
1.13701579
1.13636911
1.13572355
1.13507962
1.13443781
1.13379762
1.13315858
1.13252205
1.13188666
1.13125286
1.13062115
1.12999101
1.12936244
1.12873544
1.12811094
1.12748754
1.12686563
1.12624532
1.12562698
1.12500972
1.12439443
1.12378113
1.12316891
1.12255862
1.12194935
1.12134205
1.12073719
1.12013285
1.11952998
1.11892905
1.11833001
1.11773199
1.11713590
1.11654077
1.11594797
1.11535617
1.11476580
1.11417773
1.11359014
1.11300446
1.11242060
1.11183766
1.11125662
1.11067733
1.11009858
1.10952161
1.10894692
1.10837266
1.10780067
1.10722957
1.10665975
1.10609177
1.10552511
1.10496017
1.10439614
1.10383387
1.10327240
1.10271272
1.10215473
1.10159717
1.10104218
1.10048757
1.09993511
1.09938308
1.09883352
1.09828442
1.09773696
1.09719112
1.09664612
1.09610278
1.09556022
1.09501973
1.09447959
1.09394146
1.09340496
1.09286883
1.09233431
1.09180092
1.09126916
1.09073853
1.09020864
1.08968074
1.08915402
1.08862799
1.08810351
1.08758057
1.08705792
1.08653723
1.08601764
1.08549916
1.08498136
1.08446544
1.08395065
1.08343690
1.08292386
1.08241271
1.08190258
1.08139351
1.08088553
1.08037815
1.07987225
1.07936776
1.07886430
1.07836186
1.07786004
1.07736003
1.07686063
1.07636263
1.07586602
1.07537001
1.07487533
1.07438128
1.07388820
1.07339648
1.07290572
1.07241627
1.07192777
1.07144025
1.07095363
1.07046834
1.06998362
1.06950017
1.06901764
1.06853601
1.06805568
1.06757590
1.06709732
1.06661966
1.06614289
1.06566737
1.06519234
1.06471856
1.06424560
1.06377353
1.06330270
1.06283304
1.06236384
1.06189551
1.06142796
1.06096128
1.06049574
1.06003102
1.05956714
1.05910439
1.05864243
1.05818088
1.05772049
1.05726088
1.05680203
1.05634470
1.05588771
1.05543151
1.05497606
1.05452205
1.05406808
1.05361517
1.05316266
1.05271193
1.05226121
1.05181118
1.05136224
1.05091434
1.05046676
1.05002023
1.04957438
1.04912922
1.04868472
1.04824125
1.04779807
1.04735592
1.04691477
1.04647391
1.04603368
1.04559441
1.04515580
1.04471814
1.04428077
1.04384434
1.04340819
1.04297296
1.04253868
1.04210432
1.04167157
1.04123869
1.04080710
1.04037536
1.03994525
1.03951498
1.03908563
1.03865682
1.03822890
1.03780082
1.03737428
1.03694761
1.03652216
1.03609718
1.03567206
1.03524844
1.03482467
1.03440205
1.03397992
1.03355762
1.03313679
1.03271575
1.03229587
1.03187645
1.03145683
1.03103863
1.03062056
1.03020294
1.02978610
1.02936969
1.02895336
1.02853779
1.02812295
1.02770855
1.02729388
1.02688060
1.02646736
1.02605490
1.02564210
1.02523070
1.02481937
1.02440838
1.02399808
1.02358748
1.02317823
1.02276900
1.02236011
1.02195190
1.02154402
1.02113579
1.02072890
1.02032196
1.01991569
1.01950974
1.01910405
1.01869869
1.01829360
1.01788915
1.01748429
1.01708041
1.01667710
1.01627372
1.01587094
1.01546812
1.01506584
1.01466415
1.01426236
1.01386112
1.01345983
1.01305904
1.01265851
1.01225852
1.01185841
1.01145881
1.01105944
1.01066027
1.01026192
1.00986309
1.00946481
1.00906667
1.00866874
1.00827094
1.00787363
1.00747619
1.00707919
1.00668296
1.00628628
1.00589001
1.00549360
1.00509761
1.00470172
1.00430663
1.00391100
1.00351580
1.00312068
1.00272568
1.00233107
1.00193658
1.00154182
1.00114749
1.00075354
1.00035935
0.99996553
0.99957208
0.99917837
0.99878438
0.99839109
0.99799783
0.99760461
0.99721142
0.99681859
0.99642544
0.99603297
0.99563985
0.99524703
0.99485457
0.99446178
0.99406895
0.99367679
0.99328425
0.99289202
0.99249946
0.99210749
0.99171487
0.99132282
0.99093040
0.99053792
0.99014572
0.98975346
0.98936145
0.98896872
0.98857690
0.98818434
0.98779235
0.98740024
0.98700742
0.98661547
0.98622274
0.98583025
0.98543765
0.98504523
0.98465269
0.98425972
0.98386725
0.98347398
0.98308126
0.98268836
0.98229498
0.98190211
0.98150907
0.98111521
0.98072184
0.98032862
0.97993457
0.97954096
0.97914719
0.97875258
0.97835875
0.97796436
0.97757013
0.97717499
0.97678033
0.97638574
0.97599061
0.97559494
0.97519967
0.97480416
0.97440844
0.97401277
0.97361618
0.97322001
0.97282357
0.97242686
0.97202988
0.97163293
0.97123540
0.97083759
0.97043981
0.97004175
0.96964369
0.96924502
0.96884635
0.96844740
0.96804811
0.96764882
0.96724891
0.96684898
0.96644870
0.96604813
0.96564751
0.96524587
0.96484456
0.96444289
0.96404119
0.96363880
0.96323637
0.96283353
0.96243035
0.96202679
0.96162283
0.96121846
0.96081405
0.96040925
0.96000401
0.95959840
0.95919233
0.95878619
0.95838000
0.95797301
0.95756559
0.95715773
0.95674977
0.95634140
0.95593220
0.95552356
0.95511379
0.95470391
0.95429322
0.95388240
0.95347145
0.95305999
0.95264773
0.95223533
0.95182275
0.95140936
0.95099544
0.95058104
0.95016680
0.94975169
0.94933610
0.94892030
0.94850362
0.94808676
0.94766972
0.94725179
0.94683299
0.94641463
0.94599508
0.94557526
0.94515527
0.94473436
0.94431355
0.94389149
0.94346885
0.94304634
0.94262285
0.94219949
0.94177485
0.94135029
0.94092444
0.94049831
0.94007229
0.93964496
0.93921734
0.93878909
0.93836058
0.93793106
0.93750128
0.93707085
0.93664014
0.93620878
0.93577603
0.93534369
0.93490998
0.93447635
0.93404130
0.93360665
0.93317095
0.93273423
0.93229753
0.93186017
0.93142134
0.93098292
0.93054309
0.93010288
0.92966234
0.92922070
0.92877872
0.92833601
0.92789295
0.92744840
0.92700387
0.92655860
0.92611219
0.92566542
0.92521824
0.92477034
0.92432130
0.92387183
0.92342163
0.92297100
0.92251959
0.92206666
0.92161368
0.92115995
0.92070578
0.92025080
0.91979502
0.91933769
0.91888030
0.91842244
0.91796344
0.91750394
0.91704365
0.91658253
0.91612096
0.91565817
0.91519488
0.91472999
0.91426505
0.91379960
0.91333294
0.91286578
0.91239739
0.91192848
0.91145911
0.91098849
0.91051695
0.91004492
0.90957200
0.90909823
0.90862352
0.90814831
0.90767179
0.90719554
0.90671760
0.90623874
0.90575895
0.90527866
0.90479697
0.90431481
0.90383170
0.90334803
0.90286304
0.90237789
0.90189141
0.90140392
0.90091548
0.90042611
0.89993615
0.89944564
0.89895373
0.89846084
0.89796700
0.89747294
0.89697750
0.89648068
0.89598320
0.89548562
0.89498618
0.89448614
0.89398466
0.89348342
0.89298032
0.89247616
0.89197188
0.89146608
0.89095885
0.89045185
0.88994292
0.88943298
0.88892283
0.88841118
0.88789846
0.88738517
0.88687031
0.88635528
0.88583872
0.88532063
0.88480276
0.88428294
0.88376293
0.88324093
0.88271872
0.88219492
0.88167096
0.88114498
0.88061875
0.88009054
0.87956207
0.87903206
0.87850179
0.87796947
0.87743694
0.87690285
0.87636803
0.87583159
0.87529447
0.87475620
0.87421723
0.87367709
0.87313533
0.87259286
0.87204968
0.87150439
0.87095881
0.87041161
0.86986371
0.86931504
0.86876426
0.86821320
0.86766098
0.86710702
0.86655286
0.86599696
0.86544032
0.86488202
0.86432294
0.86376262
0.86320157
0.86263829
0.86207476
0.86150998
0.86094395
0.86037618
0.85980814
0.85923880
0.85866824
0.85809642
0.85752283
0.85694841
0.85637327
0.85579680
0.85521910
0.85464006
0.85405978
0.85347866
0.85289527
0.85231155
0.85172653
0.85114020
0.85055307
0.84996410
0.84937434
0.84878325
0.84819084
0.84759709
0.84700253
0.84640664
0.84580888
0.84521077
0.84461084
0.84400956
0.84340740
0.84280341
0.84219858
0.84159233
0.84098525
0.84037632
0.83976649
0.83915480
0.83854220
0.83792876
0.83731394
0.83669772
0.83607955
0.83546059
0.83484017
0.83421883
0.83359559
0.83297203
0.83234651
0.83171956
0.83109114
0.83046134
0.82983011
0.82919850
0.82856495
0.82792996
0.82729346
0.82665664
0.82601731
0.82537702
0.82473533
0.82409268
0.82344858
0.82280243
0.82215595
0.82150743
0.82085685
0.82020542
0.81955354
0.81889965
0.81824370
0.81758740
0.81692902
0.81627025
0.81560886
0.81494596
0.81428325
0.81361732
0.81295157
0.81228319
0.81161321
0.81094289
0.81027050
0.80959712
0.80892159
0.80824572
0.80756717
0.80688820
0.80620708
0.80552501
0.80484077
0.80415618
0.80346881
0.80278109
0.80209119
0.80140026
0.80070781
0.80001378
0.79931871
0.79862150
0.79792326
0.79722286
0.79652205
0.79581907
0.79511442
0.79440879
0.79370098
0.79299212
0.79228227
0.79156960
0.79085651
0.79014179
0.78942480
0.78870745
0.78798782
0.78726713
0.78654422
0.78582030
0.78509473
0.78436686
0.78363856
0.78290867
0.78217704
0.78144382
0.78070827
0.77997229
0.77923405
0.77849471
0.77775369
0.77701039
0.77626600
0.77552058
0.77477346
0.77402464
0.77327413
0.77252130
0.77176736
0.77101232
0.77025503
0.76949656
0.76873711
0.76797526
0.76721168
0.76644698
0.76568063
0.76491246
0.76414262
0.76337104
0.76259834
0.76182326
0.76104705
0.76026909
0.75948943
0.75870865
0.75792540
0.75714108
0.75635499
0.75556712
0.75477755
0.75398676
0.75319362
0.75239926
0.75160319
0.75080532
0.75000565
0.74920418
0.74840228
0.74759792
0.74679176
0.74598371
0.74517392
0.74436303
0.74355099
0.74273639
0.74192004
0.74110178
0.74028169
0.73946124
0.73863828
0.73781267
0.73698595
0.73615738
0.73532846
0.73449693
0.73366280
0.73282831
0.73199120
0.73115298
0.73031213
0.72947085
0.72862626
0.72778054
0.72693439
0.72608491
0.72523347
0.72438174
0.72352727
0.72267168
0.72181350
0.72095333
0.72009282
0.71922969
0.71836536
0.71749833
0.71662938
0.71575930
0.71488729
0.71401415
0.71313750
0.71226129
0.71138156
0.71050068
0.70961779
0.70873383
0.70784633
0.70695920
0.70606859
0.70517683
0.70428303
0.70338808
0.70248962
0.70159156
0.70069079
0.69978715
0.69888317
0.69797639
0.69706854
0.69615862
0.69524588
0.69433281
0.69341609
0.69249903
0.69157998
0.69065808
0.68973578
0.68881155
0.68788447
0.68695538
0.68602502
0.68509274
0.68415843
0.68322202
0.68228451
0.68134489
0.68040247
0.67945877
0.67851390
0.67756613
0.67661640
0.67566540
0.67471235
0.67375725
0.67280096
0.67184174
0.67088046
0.66991799
0.66895345
0.66798684
0.66701904
0.66604917
0.66507625
0.66410133
0.66312521
0.66214781
0.66116752
0.66018603
0.65920236
0.65821659
0.65722881
0.65623884
0.65524766
0.65425356
0.65325816
0.65226065
0.65126112
0.65026028
0.64925641
0.64825133
0.64724413
0.64623479
0.64522332
0.64420971
0.64319479
0.64217690
0.64115780
0.64013654
0.63911491
0.63808936
0.63706155
0.63603262
0.63500143
0.63396818
0.63293266
0.63189507
0.63085711
0.62981603
0.62877286
0.62772742
0.62667980
0.62563095
0.62457992
0.62352669
0.62247031
0.62141269
0.62035482
0.61929280
0.61822956
0.61716313
0.61609635
0.61502647
0.61395537
0.61288195
0.61180641
0.61072765
0.60964856
0.60856634
0.60748279
0.60639700
0.60530908
0.60421782
0.60312633
0.60203168
0.60093661
0.59983747
0.59873597
0.59763425
0.59652925
0.59542404
0.59431452
0.59320274
0.59209063
0.59097441
0.58985776
0.58873792
0.58761775
0.58649335
0.58536873
0.58423975
0.58311046
0.58197794
0.58084511
0.57970790
0.57857058
0.57743087
0.57628675
0.57514348
0.57399590
0.57284696
0.57169676
0.57054213
0.56938730
0.56822909
0.56707069
0.56590890
0.56474478
0.56357832
0.56241159
0.56123938
0.56006808
0.55889324
0.55771618
0.55653676
0.55535598
0.55417394
0.55298746
0.55179973
0.55061063
0.54941917
0.54822324
0.54702705
0.54582960
0.54462866
0.54342435
0.54222001
0.54101306
0.53980373
0.53859315
0.53737905
0.53616144
0.53494369
0.53372343
0.53250089
0.53127596
0.53004964
0.52881990
0.52758890
0.52635537
0.52511840
0.52388004
0.52263939
0.52139735
0.52015301
0.51890613
0.51765683
0.51640510
0.51515105
0.51389563
0.51263659
0.51137629
0.51011355
0.50884837
0.50758191
0.50631184
0.50504049
0.50376669
0.50249032
0.50121161
0.49993163
0.49864908
0.49736418
0.49607561
0.49478565
0.49349335
0.49219965
0.49090239
0.48960495
0.48830382
0.48700033
0.48569423
0.48438564
0.48307468
0.48176355
0.48044870
0.47913136
0.47781151
0.47648917
0.47516678
0.47383942
0.47251079
0.47117964
0.46984710
0.46851093
0.46717348
0.46583339
0.46449090
0.46314588
0.46179947
0.46044939
0.45909666
0.45774391
0.45638750
0.45502841
0.45366806
0.45230402
0.45093729
0.44957058
0.44819888
0.44682707
0.44545142
0.44407321
0.44269502
0.44131168
0.43992824
0.43854106
0.43715262
0.43576030
0.43436671
0.43297041
0.43157298
0.43017034
0.42876762
0.42736112
0.42595455
0.42454287
0.42313113
0.42171425
0.42029732
0.41887658
0.41745577
0.41603103
0.41460369
0.41317373
0.41174130
0.41030746
0.40887223
0.40743195
0.40599027
0.40454718
0.40310025
0.40165206
0.40020124
0.39874779
0.39729156
0.39583422
0.39437148
0.39291010
0.39144484
