corrn_curve_quintuple
1.92215123
1.91938535
1.91662162
1.91386764
1.91111581
1.90837389
1.90563770
1.90290762
1.90018325
1.89746477
1.89475612
1.89204962
1.88935270
1.88665775
1.88397255
1.88129319
1.87861966
1.87595197
1.87329376
1.87063769
1.86799127
1.86534680
1.86271558
1.86008630
1.85746297
1.85484521
1.85223320
1.84963071
1.84703036
1.84443931
1.84185397
1.83927432
1.83670037
1.83413210
1.83157305
1.82901612
1.82646857
1.82392665
1.82138668
1.81885585
1.81633083
1.81381490
1.81130090
1.80879268
1.80629352
1.80379993
1.80131190
1.79882580
1.79635250
1.79388111
1.79141527
1.78895853
1.78650373
1.78405783
1.78161760
1.77918285
1.77675341
1.77432961
1.77191110
1.76949823
1.76709765
1.76469548
1.76230224
1.75991442
1.75752870
1.75515516
1.75278354
1.75042076
1.74805990
1.74570768
1.74336098
1.74101963
1.73868344
1.73635275
1.73402739
1.73171057
1.72939565
1.72708959
1.72478863
1.72249295
1.72019935
1.71791739
1.71563766
1.71336300
1.71109359
1.70883272
1.70658021
1.70432645
1.70208119
1.69984113
1.69760608
1.69537948
1.69315494
1.69093865
1.68872766
1.68652003
1.68431914
1.68212499
1.67993289
1.67775055
1.67557170
1.67339953
1.67122924
1.66906722
1.66691009
1.66475659
1.66261129
1.66047087
1.65833720
1.65620682
1.65408003
1.65196122
1.64984755
1.64774027
1.64563639
1.64353749
1.64144509
1.63935779
1.63727665
1.63520060
1.63312946
1.63106019
1.62900040
1.62694398
1.62489382
1.62285019
1.62080977
1.61877587
1.61674667
1.61472246
1.61270293
1.61068973
1.60867985
1.60667494
1.60467617
1.60268366
1.60069447
1.59871152
1.59673335
1.59476139
1.59279258
1.59083011
1.58887513
1.58692212
1.58497512
1.58303297
1.58109538
1.57916263
1.57723441
1.57531230
1.57339500
1.57148221
1.56957408
1.56767200
1.56577596
1.56388439
1.56199618
1.56011258
1.55823497
1.55636196
1.55449616
1.55263230
1.55077425
1.54892089
1.54707195
1.54523029
1.54339055
1.54155658
1.53972711
1.53790229
1.53608441
1.53426980
1.53245967
1.53065670
1.52885551
1.52706011
1.52526916
1.52348385
1.52170310
1.51992545
1.51815473
1.51638709
1.51462530
1.51286908
1.51111462
1.50936845
1.50762416
1.50588410
1.50415099
1.50242091
1.50069518
1.49897634
1.49725924
1.49555016
1.49384168
1.49214131
1.49044382
1.48875199
1.48706190
1.48537973
1.48369929
1.48202560
1.48035502
1.47869103
1.47702875
1.47537318
1.47371932
1.47207337
1.47042913
1.46879152
1.46715563
1.46552757
1.46390231
1.46228010
1.46066445
1.45905159
1.45744418
1.45584197
1.45424156
1.45264753
1.45105878
1.44947172
1.44789110
1.44631454
1.44473979
1.44317250
1.44160807
1.44004767
1.43849234
1.43694114
1.43539511
1.43385074
1.43231257
1.43077849
1.42924942
1.42772212
1.42620096
1.42468375
1.42317047
1.42166010
1.42015582
1.41865544
1.41715897
1.41566753
1.41417884
1.41269404
1.41121424
1.40973830
1.40826722
1.40680009
1.40533670
1.40387725
1.40242151
1.40097080
1.39952171
1.39807851
1.39664018
1.39520456
1.39377390
1.39234690
1.39092474
1.38950526
1.38809060
1.38667956
1.38527236
1.38386889
1.38247019
1.38107414
1.37968273
1.37829618
1.37691215
1.37553295
1.37415730
1.37278542
1.37141709
1.37005447
1.36869445
1.36733806
1.36598528
1.36463715
1.36329261
1.36195065
1.36061330
1.35928155
1.35795236
1.35662663
1.35530456
1.35398604
1.35267096
1.35136240
1.35005448
1.34875196
1.34745206
1.34615557
1.34486552
1.34357699
1.34229203
1.34101045
1.33973428
1.33846060
1.33719035
1.33592539
1.33466298
1.33340303
1.33214928
1.33089712
1.32964922
1.32840575
1.32716462
1.32592696
1.32469353
1.32346345
1.32223682
1.32101438
1.31979434
1.31857949
1.31736703
1.31615697
1.31495298
1.31375045
1.31255296
1.31135792
1.31016707
1.30897858
1.30779417
1.30661401
1.30543609
1.30426241
1.30309097
1.30192454
1.30076052
1.29960051
1.29844459
1.29729008
1.29614053
1.29499327
1.29385006
1.29271001
1.29157398
1.29044101
1.28930954
1.28818379
1.28705944
1.28593984
1.28482420
1.28370918
1.28259973
1.28149336
1.28038846
1.27928909
1.27819193
1.27709707
1.27600686
1.27492043
1.27383470
1.27275441
1.27167705
1.27060279
1.26953070
1.26846243
1.26739788
1.26633640
1.26527625
1.26422143
1.26316876
1.26211993
1.26107395
1.26002930
1.25899007
1.25795288
1.25691940
1.25588882
1.25486194
1.25383635
1.25281445
1.25179620
1.25078075
1.24976901
1.24875935
1.24775323
1.24675002
1.24574957
1.24475279
1.24375721
1.24276605
1.24177762
1.24079198
1.23980920
1.23882989
1.23785334
1.23687956
1.23590854
1.23494102
1.23397623
1.23301418
1.23205479
1.23109819
1.23014504
1.22919526
1.22824824
1.22730311
1.22636074
1.22542169
1.22448540
1.22355168
1.22262063
1.22169294
1.22076797
1.21984627
1.21892648
1.21801001
1.21709545
1.21618421
1.21527556
1.21437083
1.21346805
1.21256714
1.21166944
1.21077436
1.20988315
1.20899387
1.20810636
1.20722214
1.20634175
1.20546250
1.20458645
1.20371290
1.20284253
1.20197463
1.20110862
1.20024628
1.19938581
1.19852780
1.19767357
1.19682106
1.19597038
1.19512413
1.19427890
1.19343616
1.19259708
1.19175981
1.19092617
1.19009361
1.18926351
1.18843700
1.18761222
1.18679108
1.18597101
1.18515456
1.18433981
1.18352803
1.18271794
1.18191142
1.18110653
1.18030462
1.17950439
1.17870763
1.17791196
1.17711975
1.17632926
1.17554157
1.17475559
1.17397302
1.17319330
1.17241398
1.17163871
1.17086445
1.17009361
1.16932557
1.16855792
1.16779427
1.16703160
1.16627224
1.16551571
1.16476015
1.16400727
1.16325720
1.16250862
1.16176281
1.16101908
1.16027805
1.15953861
1.15880180
1.15806708
1.15733389
1.15660393
1.15587605
1.15515023
1.15442649
1.15370423
1.15298516
1.15226814
1.15155365
1.15084069
1.15012920
1.14942078
1.14871443
1.14801003
1.14730818
1.14660782
1.14590938
1.14521348
1.14451959
1.14382816
1.14313814
1.14245062
1.14176503
1.14108192
1.14040019
1.13972088
1.13904352
1.13836808
1.13769502
1.13702284
1.13635361
1.13568621
1.13502073
1.13435707
1.13369585
1.13303694
1.13237937
1.13172363
1.13107024
1.13041868
1.12976848
1.12912101
1.12847489
1.12783057
1.12718855
1.12654832
1.12590987
1.12527320
1.12463924
1.12400659
1.12337565
1.12274650
1.12211954
1.12149386
1.12087036
1.12024907
1.11962905
1.11901118
1.11839451
1.11778004
1.11716822
1.11655710
1.11594767
1.11534038
1.11473518
1.11413121
1.11352936
1.11292867
1.11233053
1.11173358
1.11113825
1.11054544
1.10995329
1.10936325
1.10877524
1.10818834
1.10760354
1.10702068
1.10643855
1.10585841
1.10528074
1.10470370
1.10412912
1.10355562
1.10298360
1.10241361
1.10184513
1.10127856
1.10071309
1.10014957
1.09958705
1.09902650
1.09846783
1.09790979
1.09735450
1.09679977
1.09624739
1.09569561
1.09514650
1.09459804
1.09405139
1.09350655
1.09296274
1.09242076
1.09187975
1.09134100
1.09080278
1.09026675
1.08973253
1.08919885
1.08866697
1.08813640
1.08760765
1.08708019
1.08655365
1.08602928
1.08550628
1.08498413
1.08446371
1.08394501
1.08342678
1.08291067
1.08239584
1.08188229
1.08136961
1.08085897
1.08034963
1.07984150
1.07933425
1.07882906
1.07832506
1.07782229
1.07732078
1.07682005
1.07632096
1.07582344
1.07532712
1.07483199
1.07433765
1.07384528
1.07335368
1.07286365
1.07237517
1.07188745
1.07140122
1.07091579
1.07043150
1.06994872
1.06946706
1.06898687
1.06850779
1.06802986
1.06755298
1.06707758
1.06660291
1.06612967
1.06565751
1.06518641
1.06471675
1.06424780
1.06378021
1.06331369
1.06284822
1.06238414
1.06192072
1.06145869
1.06099763
1.06053762
1.06007898
1.05962166
1.05916496
1.05870928
1.05825454
1.05780080
1.05734836
1.05689687
1.05644638
1.05599715
1.05554886
1.05510115
1.05465472
1.05420921
1.05376462
1.05332166
1.05287920
1.05243768
1.05199704
1.05155797
1.05111910
1.05068142
1.05024429
1.04980905
1.04937399
1.04893975
1.04850673
1.04807487
1.04764349
1.04721328
1.04678389
1.04635532
1.04592755
1.04550093
1.04507476
1.04464972
1.04422581
1.04380234
1.04337963
1.04295800
1.04253717
1.04211739
1.04169806
1.04127977
1.04086192
1.04044510
1.04002934
1.03961366
1.03919968
1.03878572
1.03837314
1.03796058
1.03754972
1.03713887
1.03672903
1.03631986
1.03591170
1.03550352
1.03509697
1.03469043
1.03428520
1.03388057
1.03347595
1.03307290
1.03266985
1.03226804
1.03186684
1.03146561
1.03106593
1.03066619
1.03026769
1.02986976
1.02947179
1.02907530
1.02867907
1.02828341
1.02788861
1.02749436
1.02710033
1.02670715
1.02631479
1.02592298
1.02553105
1.02514056
1.02475025
1.02436079
1.02397116
1.02358297
1.02319497
1.02280742
1.02242065
1.02203372
1.02164820
1.02126281
1.02087787
1.02049369
1.02010995
1.01972601
1.01934343
1.01896094
1.01857920
1.01819787
1.01781691
1.01743637
1.01705620
1.01667676
1.01629705
1.01591836
1.01554033
1.01516235
1.01478503
1.01440779
1.01403118
1.01365521
1.01327928
1.01290395
1.01252870
1.01215402
1.01177968
1.01140596
1.01103223
1.01065908
1.01028625
1.00991371
1.00954203
1.00917001
1.00879860
1.00842742
1.00805654
1.00768587
1.00731576
1.00694562
1.00657599
1.00620717
1.00583803
1.00546935
1.00510064
1.00473242
1.00436437
1.00399716
1.00362953
1.00326240
1.00289542
1.00252865
1.00216232
1.00179618
1.00142988
1.00106406
1.00069867
1.00033315
0.99996804
0.99960337
0.99923852
0.99887350
0.99850920
0.99814501
0.99778093
0.99741695
0.99705337
0.99668957
0.99632647
0.99596285
0.99559957
0.99523669
0.99487358
0.99451049
0.99414810
0.99378542
0.99342308
0.99306052
0.99269855
0.99233605
0.99197414
0.99161194
0.99124975
0.99088788
0.99052600
0.99016443
0.98980224
0.98944094
0.98907901
0.98871767
0.98835627
0.98799425
0.98763311
0.98727128
0.98690973
0.98654813
0.98618674
0.98582528
0.98546347
0.98510217
0.98474018
0.98437873
0.98401716
0.98365520
0.98329373
0.98293216
0.98256987
0.98220806
0.98184644
0.98148408
0.98112216
0.98076014
0.98039736
0.98003535
0.97967285
0.97931052
0.97894739
0.97858473
0.97822216
0.97785912
0.97749561
0.97713250
0.97676919
0.97640571
0.97604230
0.97567807
0.97531423
0.97495018
0.97458590
0.97422139
0.97385692
0.97349193
0.97312670
0.97276153
0.97239610
0.97203068
0.97166473
0.97129878
0.97093258
0.97056608
0.97019959
0.96983254
0.96946548
0.96909811
0.96873047
0.96836279
0.96799418
0.96762587
0.96725724
0.96688859
0.96651929
0.96614996
0.96578026
0.96541023
0.96503986
0.96466912
0.96429799
0.96392683
0.96355530
0.96318336
0.96281106
0.96243834
0.96206555
0.96169270
0.96131910
0.96094509
0.96057067
0.96019615
0.95982124
0.95944555
0.95907034
0.95869410
0.95831773
0.95794059
0.95756333
0.95718592
0.95680802
0.95642936
0.95605056
0.95567157
0.95529180
0.95491152
0.95453078
0.95415016
0.95376871
0.95338679
0.95300466
0.95262168
0.95223851
0.95185514
0.95147091
0.95108586
0.95070119
0.95031538
0.94992929
0.94954300
0.94915583
0.94876872
0.94838042
0.94799155
0.94760276
0.94721302
0.94682337
0.94643249
0.94604165
0.94564958
0.94525720
0.94486488
0.94447131
0.94407743
0.94368292
0.94328812
0.94289235
0.94249628
0.94209957
0.94170255
0.94130488
0.94090588
0.94050720
0.94010721
0.93970723
0.93930590
0.93890487
0.93850283
0.93809978
0.93769670
0.93729295
0.93688778
0.93648293
0.93607672
0.93567011
0.93526312
0.93485506
0.93444662
0.93403744
0.93362788
0.93321687
0.93280582
0.93239402
0.93198110
0.93156778
0.93115401
0.93073951
0.93032388
0.92990779
0.92949095
0.92907364
0.92865555
0.92823597
0.92781627
0.92739581
0.92697485
0.92655309
0.92613050
0.92570640
0.92528217
0.92485742
0.92443155
0.92400513
0.92357790
0.92314982
0.92272125
0.92229145
0.92186113
0.92142923
0.92099719
0.92056462
0.92013083
0.91969649
0.91926092
0.91882479
0.91838814
0.91795025
0.91751141
0.91707204
0.91663175
0.91619058
0.91574844
0.91530576
0.91486176
0.91441793
0.91397243
0.91352598
0.91307858
0.91263061
0.91218126
0.91173136
0.91128050
0.91082902
0.91037620
0.90992315
0.90946876
0.90901334
0.90855692
0.90809955
0.90764152
0.90718289
0.90672284
0.90626179
0.90579975
0.90533740
0.90487367
0.90440854
0.90394269
0.90347665
0.90300876
0.90254022
0.90207022
0.90160034
0.90112863
0.90065581
0.90018277
0.89970821
0.89923220
0.89875630
0.89827849
0.89779962
0.89732045
0.89683976
0.89635797
0.89587553
0.89539151
0.89490722
0.89442138
0.89393400
0.89344671
0.89295748
0.89246797
0.89197646
0.89148466
0.89099124
0.89049756
0.89000187
0.88950583
0.88900781
0.88850943
0.88800949
0.88750920
0.88700685
0.88650419
0.88599995
0.88549490
0.88498821
0.88448076
0.88397210
0.88346268
0.88295204
0.88243973
0.88192664
0.88141278
0.88089679
0.88038041
0.87986239
0.87934357
0.87882391
0.87830214
0.87777998
0.87725660
0.87673146
0.87620601
0.87567878
0.87515074
0.87462100
0.87409040
0.87355850
0.87302578
0.87249084
0.87195552
0.87141890
0.87088097
0.87034127
0.86980118
0.86925973
0.86871701
0.86817296
0.86762710
0.86708033
0.86653275
0.86598378
0.86543351
0.86488184
0.86432886
0.86377496
0.86321878
0.86266215
0.86210415
0.86154478
0.86098452
0.86042238
0.85985935
0.85929494
0.85872912
0.85816191
0.85759380
0.85702428
0.85645285
0.85588096
0.85530720
0.85473203
0.85415588
0.85357784
0.85299888
0.85241844
0.85183706
0.85125378
0.85066951
0.85008333
0.84949616
0.84890804
0.84831846
0.84772742
0.84713439
0.84654045
0.84594499
0.84534851
0.84475008
0.84415121
0.84355032
0.84294794
0.84234400
0.84173861
0.84113171
0.84052432
0.83991492
0.83930401
0.83869152
0.83807859
0.83746310
0.83684656
0.83622854
0.83560946
0.83498885
0.83436614
0.83374297
0.83311770
0.83249031
0.83186197
0.83123306
0.83060208
0.82996897
0.82933539
0.82869968
0.82806345
0.82742456
0.82678407
0.82614363
0.82549995
0.82485631
0.82420999
0.82356199
0.82291352
0.82226292
0.82161122
0.82095732
0.82030294
0.81964583
0.81898819
0.81832832
0.81766740
0.81700424
0.81634061
0.81567415
0.81500721
0.81433802
0.81366770
0.81299576
0.81232216
0.81164742
0.81097046
0.81029237
0.80961204
0.80893117
0.80824806
0.80756320
0.80687725
0.80618904
0.80549967
0.80480921
0.80411587
0.80342198
0.80272637
0.80202841
0.80132997
0.80062918
0.79992721
0.79922294
0.79851756
0.79781043
0.79710092
0.79639086
0.79567911
0.79496553
0.79425026
0.79353259
0.79281435
0.79209377
0.79137199
0.79064844
0.78992251
0.78919539
0.78846712
0.78773706
0.78700520
0.78627155
0.78553550
0.78479823
0.78405975
0.78331892
0.78257680
0.78183360
0.78108791
0.78034039
0.77959164
0.77884113
0.77808871
0.77733452
0.77657849
0.77582122
0.77506148
0.77430051
0.77353768
0.77277305
0.77200718
0.77123875
0.77046914
0.76969766
0.76892430
0.76814913
0.76737264
0.76659369
0.76581342
0.76503132
0.76424733
0.76346143
0.76267363
0.76188527
0.76109436
0.76030154
0.75950673
0.75871007
0.75791220
0.75711306
0.75631127
0.75550762
0.75470195
0.75389435
0.75308626
0.75227557
0.75146213
0.75064747
0.74983085
0.74901374
0.74819393
0.74737142
0.74654843
0.74572272
0.74489578
0.74406612
0.74323589
0.74240226
0.74156740
0.74073197
0.73989312
0.73905219
0.73821086
0.73736669
0.73652127
0.73567316
0.73482296
0.73397228
0.73311889
0.73226417
0.73140666
0.73054711
0.72968631
0.72882348
0.72795939
0.72709170
0.72622432
0.72535331
0.72448105
0.72360665
0.72273107
0.72185185
0.72097287
0.72009031
0.71920647
0.71832049
0.71743324
0.71654238
0.71565178
0.71475837
0.71386198
0.71296512
0.71206536
0.71116440
0.71026127
0.70935521
0.70844868
0.70753841
0.70662767
0.70571482
0.70479902
0.70388269
0.70296431
0.70204298
0.70111952
0.70019468
0.69926779
0.69833877
0.69740752
0.69647505
0.69554036
0.69460275
0.69366376
0.69272346
0.69178016
0.69083477
0.68988800
0.68893906
0.68798795
0.68703553
0.68608007
0.68512243
0.68416348
0.68320235
0.68223903
0.68127440
0.68030758
0.67933759
0.67836549
0.67739207
0.67641724
0.67543941
0.67446026
0.67347881
0.67249514
0.67150935
0.67052124
0.66953181
0.66853934
0.66754545
0.66654933
0.66555106
0.66455138
0.66354854
0.66254437
0.66153796
0.66052929
0.65951838
0.65850520
0.65749060
0.65647291
0.65545387
0.65443257
0.65341078
0.65238494
0.65135673
0.65032727
0.64929544
0.64826142
0.64722502
0.64618642
0.64514733
0.64410501
0.64306048
0.64201355
0.64096432
0.63991374
0.63886086
0.63780567
0.63674719
0.63568736
0.63462716
0.63356269
0.63249688
0.63142775
0.63035816
0.62928535
0.62821118
0.62713459
0.62605575
0.62497357
0.62389094
0.62280506
0.62171773
0.62062804
0.61953610
0.61844069
0.61734493
0.61624589
0.61514631
0.61404254
0.61293629
0.61182970
0.61071971
0.60960938
0.60849463
0.60737748
0.60625990
0.60513807
0.60401571
0.60289002
0.60176390
0.60063340
0.59950258
0.59836727
0.59723153
0.59609243
0.59495292
0.59380889
0.59266465
0.59151788
0.59036657
0.58921601
0.58806100
0.58690452
0.58574667
0.58458425
0.58342152
0.58225527
0.58108874
0.57991867
0.57874616
0.57757119
0.57639583
0.57521486
0.57403469
0.57285086
0.57166467
0.57047601
0.56928587
0.56809437
0.56689828
0.56570083
0.56450189
0.56330047
0.56209444
0.56088804
0.55968028
0.55846890
0.55725400
0.55603898
0.55482122
0.55360097
0.55237934
0.55115407
0.54992515
0.54869599
0.54746421
0.54623002
0.54499330
0.54375510
0.54251334
0.54127021
0.54002443
0.53877507
0.53752422
0.53627095
0.53501618
0.53375899
0.53249914
0.53123675
0.52997180
0.52870442
0.52743554
0.52616292
0.52488893
0.52361238
0.52233326
0.52105276
0.51976851
0.51848288
0.51719467
0.51590377
0.51461041
0.51331568
0.51201824
0.51071834
0.50941464
0.50810944
0.50680177
0.50549260
0.50417974
0.50286660
0.50154964
0.50023020
0.49890802
0.49758324
0.49625596
0.49492843
0.49359704
0.49226304
0.49092641
0.48958716
0.48824779
0.48690328
0.48555741
0.48420889
0.48285888
0.48150510
0.48014995
0.47879202
0.47743159
0.47606850
0.47470392
0.47333554
0.47196437
0.47059312
0.46921806
0.46784021
0.46646099
0.46507794
0.46369209
0.46230618
0.46091512
0.45952387
0.45812864
0.45673072
0.45533276
0.45392948
0.45252603
0.45111870
0.44971001
0.44829730
0.44688323
0.44546633
0.44404820
0.44262471
0.44120105
0.43977348
0.43834576
0.43691278
0.43547965
0.43404124
0.43260268
0.43116019
0.42971757
0.42827086
0.42682143
0.42536928
0.42391454
0.42245830
0.42100056
0.41953763
0.41807319
0.41660726
0.41513734
0.41366607
0.41219206
0.41071530
0.40923566
0.40775480
0.40626840
0.40478330
0.40329418
