corrn_curve_quintuple
1.86508099
1.86263785
1.86019645
1.85776347
1.85533222
1.85290955
1.85049176
1.84807918
1.84567148
1.84326881
1.84087464
1.83848218
1.83609803
1.83371542
1.83134126
1.82897208
1.82660788
1.82424865
1.82189762
1.81954831
1.81720734
1.81486792
1.81254004
1.81021369
1.80789242
1.80557589
1.80326426
1.80096088
1.79865920
1.79636557
1.79407681
1.79179290
1.78951384
1.78723963
1.78497339
1.78270885
1.78045242
1.77820079
1.77595070
1.77370851
1.77147127
1.76924191
1.76701406
1.76479115
1.76257607
1.76036574
1.75816014
1.75595607
1.75376314
1.75157173
1.74938502
1.74720621
1.74502891
1.74285932
1.74069456
1.73853447
1.73637889
1.73422812
1.73208185
1.72994038
1.72780963
1.72567727
1.72355264
1.72143262
1.71931426
1.71720653
1.71510029
1.71300172
1.71090464
1.70881504
1.70673014
1.70464979
1.70257383
1.70050255
1.69843581
1.69637645
1.69431858
1.69226838
1.69022252
1.68818115
1.68614142
1.68411183
1.68208402
1.68006052
1.67804148
1.67602984
1.67402543
1.67201969
1.67002132
1.66802736
1.66603766
1.66405527
1.66207450
1.66010088
1.65813176
1.65616542
1.65420488
1.65225013
1.65029699
1.64835235
1.64641060
1.64447459
1.64254004
1.64061265
1.63868941
1.63676919
1.63485607
1.63294708
1.63104391
1.62914344
1.62724597
1.62535540
1.62346920
1.62158848
1.61971059
1.61783692
1.61596883
1.61410508
1.61224662
1.61039247
1.60854250
1.60669397
1.60485369
1.60301620
1.60118408
1.59935759
1.59753373
1.59571548
1.59390121
1.59209118
1.59028512
1.58848448
1.58668660
1.58489293
1.58310453
1.58132151
1.57954123
1.57776632
1.57599545
1.57422991
1.57246697
1.57070948
1.56895847
1.56720899
1.56546467
1.56372447
1.56198812
1.56025587
1.55852746
1.55680430
1.55508521
1.55336994
1.55165861
1.54995247
1.54825153
1.54655436
1.54485997
1.54316947
1.54148413
1.53980267
1.53812746
1.53645375
1.53478502
1.53312027
1.53145925
1.52980453
1.52815131
1.52650301
1.52485854
1.52321801
1.52158347
1.51995163
1.51832358
1.51670173
1.51508124
1.51346572
1.51185396
1.51024704
1.50864398
1.50704346
1.50544894
1.50385695
1.50226998
1.50068778
1.49910693
1.49753330
1.49596112
1.49439250
1.49282990
1.49126980
1.48971335
1.48816288
1.48661373
1.48507157
1.48352969
1.48199489
1.48046243
1.47893484
1.47740857
1.47588919
1.47437113
1.47285891
1.47134924
1.46984528
1.46834262
1.46684576
1.46535020
1.46386153
1.46237416
1.46089253
1.45941219
1.45793868
1.45646745
1.45499873
1.45353569
1.45207491
1.45061882
1.44916716
1.44771689
1.44627214
1.44483191
1.44339294
1.44195957
1.44052961
1.43910102
1.43767895
1.43625921
1.43484285
1.43343084
1.43202231
1.43061821
1.42921536
1.42781787
1.42642383
1.42503407
1.42364566
1.42226256
1.42088278
1.41950631
1.41813222
1.41676340
1.41539786
1.41403561
1.41267765
1.41132195
1.40996951
1.40862134
1.40727643
1.40593567
1.40459824
1.40326394
1.40193296
1.40060510
1.39928154
1.39795919
1.39664193
1.39532884
1.39401795
1.39271131
1.39140774
1.39010831
1.38881105
1.38751791
1.38622781
1.38494094
1.38365719
1.38237753
1.38110001
1.37982647
1.37855707
1.37728971
1.37602648
1.37476624
1.37350915
1.37225503
1.37100587
1.36975879
1.36851476
1.36727376
1.36603673
1.36480272
1.36357078
1.36234279
1.36111965
1.35989857
1.35868038
1.35746527
1.35625312
1.35504385
1.35384029
1.35263702
1.35143842
1.35024195
1.34904831
1.34786032
1.34667343
1.34548954
1.34430846
1.34313208
1.34195768
1.34078617
1.33961922
1.33845434
1.33729143
1.33613395
1.33497763
1.33382494
1.33267606
1.33152903
1.33038491
1.32924439
1.32810668
1.32697186
1.32584060
1.32471127
1.32358644
1.32246352
1.32134251
1.32022682
1.31911219
1.31800191
1.31689360
1.31578888
1.31468603
1.31358667
1.31249093
1.31139698
1.31030665
1.30921809
1.30813389
1.30705161
1.30597275
1.30489737
1.30382301
1.30275294
1.30168469
1.30061991
1.29955775
1.29849903
1.29744284
1.29638772
1.29533764
1.29428854
1.29324356
1.29220197
1.29116063
1.29012418
1.28909029
1.28805745
1.28702946
1.28600322
1.28497881
1.28395843
1.28294127
1.28192444
1.28091239
1.27990277
1.27889571
1.27789038
1.27688830
1.27588940
1.27489304
1.27389761
1.27290686
1.27191780
1.27093202
1.26994860
1.26896611
1.26798838
1.26701224
1.26603926
1.26506869
1.26410127
1.26313475
1.26217136
1.26121109
1.26025312
1.25929833
1.25834516
1.25739501
1.25644727
1.25550181
1.25455948
1.25361795
1.25268027
1.25174483
1.25081170
1.24988094
1.24895313
1.24802760
1.24710436
1.24618339
1.24526541
1.24434968
1.24343621
1.24252493
1.24161595
1.24070992
1.23980675
1.23890587
1.23800644
1.23710929
1.23621497
1.23532292
1.23443299
1.23354525
1.23266038
1.23177775
1.23089790
1.23001953
1.22914399
1.22826992
1.22739867
1.22652956
1.22566385
1.22479966
1.22393692
1.22307688
1.22221902
1.22136452
1.22051151
1.21965986
1.21881101
1.21796548
1.21712071
1.21627865
1.21543864
1.21460133
1.21376606
1.21293224
1.21210161
1.21127242
1.21044525
1.20962137
1.20879878
1.20797762
1.20716036
1.20634374
1.20552917
1.20471778
1.20390777
1.20310093
1.20229477
1.20149063
1.20068961
1.19988991
1.19909338
1.19829752
1.19750482
1.19671340
1.19592451
1.19513690
1.19435240
1.19356912
1.19278838
1.19200890
1.19123245
1.19045670
1.18968395
1.18891251
1.18814345
1.18737568
1.18661088
1.18584850
1.18508615
1.18432739
1.18356924
1.18281408
1.18206130
1.18130853
1.18055931
1.17981069
1.17906495
1.17832161
1.17757885
1.17683837
1.17610027
1.17536327
1.17462863
1.17389566
1.17316498
1.17243549
1.17170823
1.17098267
1.17025823
1.16953661
1.16881667
1.16809841
1.16738182
1.16666633
1.16595362
1.16524256
1.16453364
1.16382586
1.16311916
1.16241514
1.16171280
1.16101202
1.16031339
1.15961588
1.15891990
1.15822607
1.15753387
1.15684375
1.15615465
1.15546766
1.15478223
1.15409890
1.15341657
1.15273627
1.15205756
1.15138039
1.15070522
1.15003055
1.14935846
1.14868783
1.14801875
1.14735112
1.14668555
1.14602194
1.14535928
1.14469809
1.14403889
1.14338115
1.14272439
1.14207002
1.14141662
1.14076466
1.14011465
1.13946606
1.13881889
1.13817313
1.13752975
1.13688731
1.13624621
1.13560656
1.13496874
1.13433185
1.13369678
1.13306359
1.13243129
1.13180081
1.13117117
1.13054338
1.12991792
1.12929279
1.12866899
1.12804700
1.12742677
1.12680741
1.12618984
1.12557307
1.12495853
1.12434483
1.12373240
1.12312218
1.12251225
1.12190412
1.12129768
1.12069200
1.12008810
1.11948582
1.11888391
1.11828366
1.11768559
1.11708777
1.11649212
1.11589720
1.11530343
1.11471137
1.11412050
1.11353124
1.11294272
1.11235585
1.11176962
1.11118507
1.11060209
1.11001937
1.10943914
1.10885912
1.10828116
1.10770344
1.10712814
1.10655311
1.10597961
1.10540762
1.10483632
1.10426657
1.10369744
1.10313030
1.10256333
1.10199829
1.10143476
1.10087143
1.10030961
1.09974878
1.09918949
1.09863119
1.09807347
1.09751767
1.09696293
1.09640871
1.09585594
1.09530462
1.09475341
1.09420407
1.09365571
1.09310834
1.09256150
1.09201646
1.09147242
1.09092930
1.09038674
1.08984599
1.08930614
1.08876722
1.08822928
1.08769179
1.08715568
1.08662088
1.08608699
1.08555400
1.08502147
1.08449070
1.08396038
1.08343137
1.08290365
1.08237638
1.08185036
1.08132481
1.08080012
1.08027669
1.07975411
1.07923274
1.07871221
1.07819254
1.07767365
1.07715599
1.07663876
1.07612272
1.07560747
1.07509301
1.07457976
1.07406692
1.07355518
1.07304426
1.07253410
1.07202512
1.07151648
1.07100900
1.07050222
1.06999623
1.06949138
1.06898762
1.06848418
1.06798149
1.06747948
1.06697822
1.06647802
1.06597852
1.06547975
1.06498203
1.06448499
1.06398822
1.06349253
1.06299750
1.06250313
1.06201022
1.06151751
1.06102549
1.06053410
1.06004411
1.05955398
1.05906484
1.05857595
1.05808883
1.05760156
1.05711486
1.05662918
1.05614446
1.05565992
1.05517636
1.05469337
1.05421095
1.05372910
1.05324819
1.05276745
1.05228766
1.05180879
1.05133007
1.05085189
1.05037459
1.04989785
1.04942197
1.04894626
1.04847141
1.04799671
1.04752285
1.04704988
1.04657665
1.04610503
1.04563312
1.04516244
1.04469146
1.04422210
1.04375242
1.04328358
1.04281519
1.04234762
1.04187972
1.04141335
1.04094669
1.04048121
1.04001611
1.03955070
1.03908679
1.03862256
1.03815945
1.03769673
1.03723367
1.03677209
1.03631013
1.03584929
1.03538882
1.03492799
1.03446857
1.03400917
1.03355010
1.03309175
1.03263374
1.03217568
1.03171832
1.03126162
1.03080527
1.03034847
1.02989307
1.02943760
1.02898283
1.02852756
1.02807370
1.02761978
1.02716610
1.02671306
1.02625954
1.02580740
1.02535514
1.02490313
1.02445174
1.02400058
1.02354892
1.02309860
1.02264810
1.02219822
1.02174856
1.02129908
1.02084983
1.02040075
1.01995227
1.01950321
1.01905511
1.01860752
1.01815974
1.01771249
1.01726508
1.01681817
1.01637178
1.01592517
1.01547904
1.01503276
1.01458690
1.01414122
1.01369603
1.01325060
1.01280562
1.01236078
1.01191605
1.01147213
1.01102756
1.01058350
1.01013949
1.00969559
1.00925174
1.00880833
1.00836466
1.00792138
1.00747886
1.00703574
1.00659296
1.00614993
1.00570727
1.00526461
1.00482275
1.00438019
1.00393801
1.00349581
1.00305366
1.00261185
1.00217008
1.00172790
1.00128612
1.00084466
1.00040285
0.99996135
0.99952019
0.99907863
0.99863667
0.99819541
0.99775410
0.99731274
0.99687133
0.99643022
0.99598869
0.99554782
0.99510614
0.99466472
0.99422362
0.99378206
0.99334038
0.99289937
0.99245786
0.99201661
0.99157492
0.99113381
0.99069189
0.99025054
0.98980870
0.98936672
0.98892497
0.98848308
0.98804141
0.98759885
0.98715724
0.98671474
0.98627280
0.98583066
0.98538765
0.98494556
0.98450251
0.98405969
0.98361666
0.98317378
0.98273069
0.98228707
0.98184393
0.98139984
0.98095631
0.98051252
0.98006812
0.97962424
0.97918012
0.97873501
0.97829040
0.97784591
0.97740041
0.97695537
0.97651010
0.97606381
0.97561837
0.97517223
0.97472623
0.97427915
0.97383257
0.97338603
0.97293881
0.97249095
0.97204349
0.97159571
0.97114766
0.97069962
0.97025050
0.96980180
0.96935277
0.96890339
0.96845367
0.96800394
0.96755351
0.96710273
0.96665196
0.96620082
0.96574966
0.96529777
0.96484585
0.96439358
0.96394088
0.96348817
0.96303472
0.96258121
0.96212729
0.96167300
0.96121863
0.96076309
0.96030788
0.95985224
0.95939656
0.95894005
0.95848349
0.95802644
0.95756898
0.95711107
0.95665270
0.95619382
0.95573491
0.95527552
0.95481561
0.95435527
0.95389440
0.95343343
0.95297239
0.95251043
0.95204797
0.95158500
0.95112191
0.95065835
0.95019383
0.94972993
0.94926476
0.94879945
0.94833321
0.94786682
0.94740028
0.94693315
0.94646512
0.94599692
0.94552852
0.94505920
0.94458927
0.94411880
0.94364851
0.94317724
0.94270542
0.94223337
0.94176033
0.94128709
0.94081365
0.94033919
0.93986377
0.93938885
0.93891259
0.93843603
0.93795928
0.93748150
0.93700385
0.93652479
0.93604509
0.93556554
0.93508490
0.93460442
0.93412250
0.93364069
0.93315743
0.93267387
0.93219045
0.93170557
0.93122037
0.93073448
0.93024831
0.92976103
0.92927346
0.92878519
0.92829662
0.92780733
0.92731650
0.92682615
0.92633428
0.92584251
0.92534917
0.92485632
0.92436229
0.92386715
0.92337205
0.92287624
0.92237878
0.92188183
0.92138331
0.92088439
0.92038513
0.91988466
0.91938384
0.91888223
0.91838025
0.91787662
0.91737306
0.91686869
0.91636308
0.91585709
0.91535068
0.91484349
0.91433504
0.91382616
0.91331649
0.91280637
0.91229542
0.91178280
0.91127016
0.91075671
0.91024281
0.90972804
0.90921242
0.90869509
0.90817772
0.90765989
0.90714082
0.90662122
0.90610078
0.90557946
0.90505768
0.90453456
0.90401095
0.90348557
0.90296018
0.90243429
0.90190708
0.90137935
0.90085028
0.90032070
0.89979064
0.89925923
0.89872684
0.89819396
0.89766014
0.89712540
0.89658967
0.89605344
0.89551578
0.89497850
0.89443937
0.89389926
0.89335817
0.89281657
0.89227347
0.89172989
0.89118532
0.89064018
0.89009361
0.88954693
0.88899881
0.88844964
0.88789945
0.88734829
0.88679653
0.88624422
0.88569041
0.88513555
0.88457971
0.88402369
0.88346619
0.88290721
0.88234755
0.88178786
0.88122614
0.88066383
0.88009997
0.87953646
0.87897094
0.87840429
0.87783758
0.87726925
0.87669939
0.87612986
0.87555825
0.87498558
0.87441275
0.87383831
0.87326276
0.87268665
0.87210886
0.87153095
0.87095141
0.87037024
0.86978939
0.86920645
0.86862337
0.86803814
0.86745277
0.86686569
0.86627853
0.86568918
0.86509965
0.86450797
0.86391609
0.86332258
0.86272887
0.86213294
0.86153687
0.86093913
0.86034068
0.85974051
0.85913965
0.85853760
0.85793486
0.85733091
0.85672523
0.85611885
0.85551178
0.85490243
0.85429285
0.85368157
0.85306958
0.85245683
0.85184183
0.85122660
0.85061017
0.84999190
0.84937350
0.84875325
0.84813228
0.84750956
0.84688605
0.84626127
0.84563575
0.84500787
0.84437979
0.84375043
0.84311978
0.84248727
0.84185458
0.84122053
0.84058523
0.83994862
0.83931015
0.83867086
0.83803086
0.83738949
0.83674685
0.83610282
0.83545752
0.83481139
0.83416284
0.83351403
0.83286387
0.83221237
0.83156008
0.83090586
0.83025085
0.82959449
0.82893675
0.82827765
0.82761775
0.82695647
0.82629324
0.82562972
0.82496430
0.82429748
0.82362980
0.82296019
0.82228977
0.82161788
0.82094518
0.82027054
0.81959501
0.81891754
0.81823918
0.81755999
0.81687937
0.81619733
0.81551325
0.81482840
0.81414204
0.81345479
0.81276554
0.81207606
0.81138452
0.81069152
0.80999700
0.80930108
0.80860368
0.80790599
0.80720627
0.80650507
0.80580233
0.80509935
0.80439370
0.80368712
0.80297912
0.80227017
0.80155973
0.80084716
0.80013435
0.79941939
0.79870229
0.79798437
0.79726607
0.79654568
0.79582312
0.79510032
0.79437534
0.79365005
0.79292200
0.79219240
0.79146314
0.79073045
0.78999809
0.78926295
0.78852618
0.78778915
0.78704997
0.78630982
0.78556744
0.78482480
0.78407934
0.78333355
0.78258552
0.78183656
0.78108536
0.78033389
0.77957949
0.77882483
0.77806790
0.77730997
0.77655051
0.77578943
0.77502734
0.77426303
0.77349771
0.77273016
0.77196228
0.77119215
0.77042032
0.76964754
0.76887251
0.76809645
0.76731944
0.76653947
0.76575917
0.76497721
0.76419289
0.76340832
0.76262138
0.76183341
0.76104314
0.76025189
0.75945898
0.75866368
0.75786804
0.75707079
0.75627178
0.75547116
0.75466812
0.75386475
0.75305904
0.75225227
0.75144380
0.75063296
0.74982107
0.74900819
0.74819359
0.74737727
0.74655923
0.74573881
0.74491731
0.74409474
0.74326985
0.74244381
0.74161685
0.74078740
0.73995620
0.73912393
0.73828997
0.73745419
0.73661672
0.73577749
0.73493717
0.73409441
0.73325056
0.73240493
0.73155760
0.73070918
0.72985822
0.72900623
0.72815246
0.72729689
0.72643961
0.72558114
0.72472026
0.72385820
0.72299441
0.72212881
0.72126140
0.72039217
0.71952261
0.71865053
0.71777662
0.71690082
0.71602326
0.71514466
0.71426494
0.71338259
0.71249849
0.71161246
0.71072458
0.70983645
0.70894576
0.70805233
0.70715784
0.70626150
0.70536490
0.70446564
0.70356369
0.70266150
0.70175663
0.70085069
0.69994206
0.69903310
0.69812070
0.69720723
0.69629344
0.69537619
0.69445696
0.69353757
0.69261537
0.69169210
0.69076617
0.68983825
0.68891009
0.68797926
0.68704727
0.68611252
0.68517585
0.68423810
0.68329841
0.68235765
0.68141325
0.68046948
0.67952205
0.67857354
0.67762300
0.67667146
0.67571625
0.67476159
0.67380332
0.67284397
0.67188257
0.67092008
0.66995396
0.66898841
0.66802010
0.66704885
0.66607738
0.66510305
0.66412771
0.66315030
0.66217001
0.66118951
0.66020524
0.65922075
0.65823427
0.65724489
0.65625521
0.65526362
0.65426912
0.65327261
0.65227490
0.65127527
0.65027361
0.64926984
0.64826505
0.64725815
0.64624839
0.64523743
0.64422535
0.64321031
0.64219332
0.64117513
0.64015489
0.63913260
0.63810919
0.63708281
0.63605436
0.63502479
0.63399316
0.63295947
0.63192466
0.63088778
0.62984779
0.62880582
0.62776273
0.62671841
0.62567115
0.62462277
0.62357221
0.62251956
0.62146491
0.62040808
0.61935011
0.61828918
0.61722702
0.61616275
0.61509648
0.61402897
0.61295838
0.61188666
0.61081282
0.60973686
0.60865878
0.60757858
0.60649714
0.60541269
0.60432709
0.60323936
0.60215138
0.60105938
0.59996514
0.59886985
0.59777232
0.59667275
0.59557092
0.59446704
0.59336292
0.59225564
0.59114630
0.59003470
0.58892093
0.58780602
0.58668893
0.58556968
0.58444723
0.58332362
0.58219990
0.58107193
0.57994282
0.57881048
0.57767792
0.57654224
0.57540541
0.57426628
0.57312506
0.57198059
0.57083591
0.56968808
0.56853900
0.56738770
0.56623430
0.56507752
0.56392064
0.56276059
0.56160024
0.56043574
0.55926891
0.55810199
0.55693177
0.55576147
0.55458678
0.55340986
0.55223274
0.55105144
0.54986984
0.54868502
0.54750003
0.54631070
0.54512132
0.54392748
0.54273347
0.54153621
0.54033879
0.53913689
0.53793505
0.53673083
0.53552212
0.53431447
0.53310243
0.53188911
0.53067464
0.52945563
0.52823659
0.52701414
0.52579165
0.52456574
0.52333754
0.52210704
0.52087641
0.51964017
0.51840504
0.51716636
0.51592549
0.51468230
0.51343784
0.51219222
0.51094208
0.50969079
0.50843822
0.50718333
0.50592390
0.50466435
0.50340365
0.50213944
0.50087185
0.49960438
0.49833434
0.49706196
0.49578843
0.49451136
0.49323077
0.49195019
0.49066715
0.48938187
0.48809424
0.48680533
0.48551298
0.48421947
0.48292347
0.48162403
0.48032330
0.47902032
0.47771606
0.47640955
0.47510054
0.47378915
0.47247538
0.47115936
0.46984204
0.46852112
0.46719903
0.46587455
0.46454768
0.46321965
0.46188798
0.46055515
0.45921993
0.45788217
0.45654214
0.45520094
0.45385721
0.45251120
0.45116152
0.44981055
0.44845728
0.44710274
0.44574463
0.44438651
0.44302470
0.44166058
0.44029391
0.43892480
0.43755338
0.43618196
0.43480683
0.43342925
0.43204923
0.43066676
0.42928443
0.42789707
0.42650855
0.42511758
0.42372532
0.42232944
0.42093240
0.41953278
0.41813082
0.41672640
0.41532069
0.41391133
0.41249937
0.41108758
0.40967213
0.40825406
0.40683485
0.40541196
0.40398645
0.40256113
0.40113079
0.39970050
0.39826638
0.39682976
0.39539335
0.39395174
0.39251021
0.39106496
0.38961856
0.38816830
0.38671690
0.38526286
0.38380781
0.38234751
0.38088730
0.37942334
0.37795948
0.37649049
0.37502159
0.37354755
0.37207361
0.37059590
0.36911830
0.36763678
0.36615273
0.36466615
0.36317717
0.36168691
0.36019538
0.35869878
0.35720090
0.35570175
0.35419878
0.35269467
0.35118802
0.34967882
0.34816692
0.34665403
0.34513573
0.34361902
0.34209846
