corrn_curve_quartic
1.92934752
1.92651593
1.92368683
1.92086799
1.91805163
1.91524571
1.91244591
1.90965265
1.90686551
1.90408468
1.90131417
1.89854613
1.89578817
1.89303248
1.89028704
1.88754784
1.88481488
1.88208814
1.87937136
1.87665703
1.87395283
1.87125088
1.86856273
1.86587682
1.86319726
1.86052363
1.85785614
1.85519863
1.85254356
1.84989824
1.84725899
1.84462582
1.84199870
1.83937764
1.83676623
1.83415724
1.83155806
1.82896487
1.82637392
1.82379253
1.82121731
1.81865160
1.81608810
1.81353074
1.81098285
1.80844087
1.80590480
1.80337094
1.80085035
1.79833195
1.79581942
1.79331641
1.79081559
1.78832408
1.78583857
1.78335888
1.78088480
1.77841671
1.77595423
1.77349770
1.77105392
1.76860874
1.76617287
1.76374273
1.76131495
1.75889979
1.75648679
1.75408300
1.75168138
1.74928877
1.74690198
1.74452084
1.74214517
1.73977530
1.73741105
1.73505569
1.73270248
1.73035847
1.72801987
1.72568683
1.72335610
1.72103740
1.71872118
1.71641031
1.71410496
1.71180850
1.70952073
1.70723188
1.70495187
1.70267732
1.70040806
1.69814757
1.69588936
1.69363973
1.69139567
1.68915519
1.68692176
1.68469535
1.68247121
1.68025717
1.67804684
1.67584348
1.67364221
1.67144951
1.66926195
1.66707825
1.66490306
1.66273299
1.66056994
1.65841040
1.65625469
1.65410724
1.65196517
1.64982975
1.64769796
1.64557138
1.64345156
1.64133707
1.63922901
1.63712626
1.63502867
1.63293313
1.63084735
1.62876516
1.62668947
1.62462057
1.62255507
1.62049634
1.61844252
1.61639393
1.61435023
1.61231309
1.61027948
1.60825105
1.60622899
1.60421343
1.60220137
1.60019579
1.59819519
1.59620103
1.59421021
1.59222596
1.59024943
1.58827503
1.58630687
1.58434377
1.58238542
1.58043210
1.57848352
1.57654126
1.57460400
1.57267145
1.57074374
1.56882230
1.56690710
1.56499656
1.56308955
1.56118734
1.55929132
1.55740008
1.55551627
1.55363455
1.55175883
1.54988799
1.54802174
1.54616297
1.54430629
1.54245554
1.54060949
1.53876826
1.53693416
1.53510349
1.53327747
1.53145880
1.52964205
1.52783128
1.52602513
1.52422479
1.52242917
1.52063680
1.51885155
1.51706953
1.51529353
1.51352326
1.51175489
1.50999500
1.50823713
1.50648364
1.50473727
1.50299409
1.50125539
1.49952375
1.49779399
1.49607243
1.49435158
1.49263902
1.49092947
1.48922574
1.48752388
1.48583010
1.48413817
1.48245316
1.48077138
1.47909634
1.47742315
1.47575681
1.47409231
1.47243587
1.47078126
1.46913344
1.46748744
1.46584943
1.46421434
1.46258242
1.46095721
1.45933491
1.45771819
1.45610680
1.45449733
1.45289437
1.45129682
1.44970107
1.44811190
1.44652690
1.44494382
1.44336834
1.44179583
1.44022747
1.43866430
1.43710538
1.43555174
1.43399987
1.43245432
1.43091297
1.42937674
1.42784239
1.42631430
1.42479026
1.42327027
1.42175328
1.42024250
1.41873573
1.41723297
1.41573534
1.41424057
1.41274979
1.41126411
1.40978239
1.40830564
1.40683294
1.40536407
1.40389923
1.40243822
1.40098232
1.39952814
1.39807994
1.39663671
1.39519628
1.39376091
1.39232929
1.39090260
1.38947868
1.38805966
1.38664436
1.38523299
1.38382542
1.38242272
1.38102275
1.37962752
1.37823722
1.37684953
1.37546674
1.37408760
1.37271231
1.37134064
1.36997477
1.36861157
1.36725208
1.36589628
1.36454520
1.36319780
1.36185305
1.36051298
1.35917860
1.35784684
1.35651862
1.35519412
1.35387325
1.35255589
1.35124512
1.34993506
1.34863048
1.34732857
1.34603014
1.34473823
1.34344790
1.34216121
1.34087796
1.33960018
1.33832495
1.33705323
1.33578685
1.33452308
1.33326185
1.33200686
1.33075353
1.32950451
1.32825999
1.32701787
1.32577928
1.32454496
1.32331406
1.32208666
1.32086350
1.31964281
1.31842735
1.31721435
1.31600379
1.31479935
1.31359643
1.31239859
1.31120326
1.31001217
1.30882349
1.30763893
1.30645868
1.30528072
1.30410703
1.30293564
1.30176930
1.30060543
1.29944560
1.29828990
1.29713567
1.29598643
1.29483953
1.29369673
1.29255712
1.29142158
1.29028913
1.28915822
1.28803308
1.28690937
1.28579046
1.28467554
1.28356128
1.28245263
1.28134710
1.28024307
1.27914461
1.27804839
1.27695451
1.27586531
1.27477993
1.27369528
1.27261610
1.27153989
1.27046680
1.26939592
1.26832889
1.26726561
1.26620542
1.26514661
1.26409315
1.26304187
1.26199445
1.26094992
1.25990675
1.25886902
1.25783335
1.25680143
1.25577243
1.25474714
1.25372319
1.25270294
1.25168637
1.25067262
1.24966261
1.24865469
1.24765034
1.24664893
1.24565029
1.24465534
1.24366162
1.24267234
1.24168580
1.24070208
1.23972124
1.23874387
1.23776930
1.23679751
1.23582850
1.23486300
1.23390026
1.23294027
1.23198295
1.23102844
1.23007740
1.22912974
1.22818486
1.22724188
1.22630167
1.22536481
1.22443070
1.22349920
1.22257036
1.22164490
1.22072217
1.21980272
1.21888520
1.21797101
1.21705874
1.21614979
1.21524344
1.21434103
1.21344058
1.21254201
1.21164664
1.21075392
1.20986507
1.20897815
1.20809301
1.20721118
1.20633317
1.20545632
1.20458267
1.20371153
1.20284356
1.20197809
1.20111449
1.20025459
1.19939655
1.19854097
1.19768918
1.19683911
1.19599088
1.19514707
1.19430429
1.19346401
1.19262738
1.19179256
1.19096138
1.19013129
1.18930364
1.18847960
1.18765728
1.18683860
1.18602099
1.18520700
1.18439472
1.18358539
1.18277776
1.18197370
1.18117126
1.18037181
1.17957403
1.17877972
1.17798650
1.17719674
1.17640868
1.17562344
1.17483989
1.17405975
1.17328246
1.17250556
1.17173271
1.17096086
1.17019243
1.16942679
1.16866155
1.16790028
1.16714001
1.16638303
1.16562887
1.16487567
1.16412517
1.16337744
1.16263121
1.16188775
1.16114635
1.16040764
1.15967052
1.15893602
1.15820361
1.15747271
1.15674503
1.15601943
1.15529588
1.15457439
1.15385439
1.15313756
1.15242276
1.15171050
1.15099975
1.15029046
1.14958423
1.14888006
1.14817782
1.14747813
1.14677991
1.14608362
1.14538983
1.14469806
1.14400873
1.14332080
1.14263535
1.14195183
1.14127077
1.14059109
1.13991380
1.13923846
1.13856502
1.13789394
1.13722374
1.13655648
1.13589102
1.13522748
1.13456574
1.13390643
1.13324942
1.13259372
1.13193985
1.13128831
1.13063859
1.12999021
1.12934455
1.12870022
1.12805767
1.12741742
1.12677894
1.12614222
1.12550725
1.12487500
1.12424403
1.12361476
1.12298726
1.12236193
1.12173788
1.12111598
1.12049628
1.11987783
1.11926151
1.11864639
1.11803343
1.11742311
1.11681349
1.11620552
1.11559968
1.11499592
1.11439337
1.11379292
1.11319362
1.11259683
1.11200123
1.11140724
1.11081573
1.11022487
1.10963612
1.10904936
1.10846370
1.10788012
1.10729846
1.10671752
1.10613854
1.10556202
1.10498611
1.10441264
1.10384023
1.10326928
1.10270034
1.10213289
1.10156734
1.10100287
1.10044033
1.09987876
1.09931915
1.09876140
1.09820425
1.09764984
1.09709598
1.09654444
1.09599348
1.09544517
1.09489749
1.09435160
1.09380751
1.09326441
1.09272314
1.09218282
1.09164473
1.09110714
1.09057174
1.09003811
1.08950502
1.08897370
1.08844367
1.08791544
1.08738849
1.08686243
1.08633852
1.08581595
1.08529422
1.08477420
1.08425588
1.08373800
1.08322223
1.08270772
1.08219446
1.08168205
1.08117167
1.08066256
1.08015465
1.07964759
1.07914257
1.07863872
1.07813608
1.07763468
1.07713404
1.07663502
1.07613755
1.07564125
1.07514613
1.07465177
1.07415936
1.07366771
1.07317760
1.07268902
1.07220118
1.07171481
1.07122922
1.07074474
1.07026176
1.06977988
1.06929945
1.06882010
1.06834188
1.06786469
1.06738896
1.06691395
1.06644034
1.06596778
1.06549627
1.06502618
1.06455678
1.06408871
1.06362170
1.06315571
1.06269110
1.06222712
1.06176451
1.06130286
1.06084223
1.06038295
1.05992497
1.05946759
1.05901121
1.05855574
1.05810126
1.05764806
1.05719579
1.05674448
1.05629444
1.05584530
1.05539672
1.05494941
1.05450299
1.05405747
1.05361357
1.05317014
1.05272763
1.05228599
1.05184589
1.05140597
1.05096723
1.05052901
1.05009266
1.04965647
1.04922108
1.04878690
1.04835385
1.04792126
1.04748983
1.04705919
1.04662935
1.04620029
1.04577237
1.04534487
1.04491849
1.04449322
1.04406836
1.04364425
1.04322120
1.04279892
1.04237768
1.04195687
1.04153709
1.04111771
1.04069935
1.04028204
1.03986478
1.03944920
1.03903363
1.03861942
1.03820521
1.03779268
1.03738014
1.03696859
1.03655770
1.03614779
1.03573786
1.03532952
1.03492119
1.03451414
1.03410768
1.03370119
1.03329628
1.03289134
1.03248763
1.03208450
1.03168133
1.03127969
1.03087797
1.03047747
1.03007753
1.02967753
1.02927899
1.02888070
1.02848295
1.02808605
1.02768969
1.02729352
1.02689819
1.02650366
1.02610967
1.02571553
1.02532282
1.02493028
1.02453857
1.02414666
1.02375619
1.02336589
1.02297603
1.02258693
1.02219764
1.02180976
1.02142199
1.02103465
1.02064806
1.02026189
1.01987550
1.01949047
1.01910549
1.01872127
1.01833743
1.01795395
1.01757088
1.01718816
1.01680615
1.01642385
1.01604257
1.01566192
1.01528131
1.01490136
1.01452146
1.01414218
1.01376354
1.01338490
1.01300686
1.01262888
1.01225146
1.01187437
1.01149788
1.01112137
1.01074542
1.01036978
1.00999442
1.00961991
1.00924504
1.00887076
1.00849671
1.00812294
1.00774937
1.00737634
1.00700327
1.00663070
1.00625893
1.00588682
1.00551517
1.00514347
1.00477224
1.00440118
1.00403095
1.00366028
1.00329010
1.00292005
1.00255020
1.00218079
1.00181156
1.00144215
1.00107321
1.00070469
1.00033603
0.99996777
0.99959993
0.99923191
0.99886370
0.99849620
0.99812881
0.99776151
0.99739430
0.99702748
0.99666044
0.99629409
0.99592719
0.99556063
0.99519447
0.99482806
0.99446167
0.99409596
0.99372995
0.99336428
0.99299837
0.99263306
0.99226719
0.99190191
0.99153633
0.99117076
0.99080548
0.99044020
0.99007521
0.98970960
0.98934487
0.98897951
0.98861472
0.98824987
0.98788439
0.98751977
0.98715447
0.98678944
0.98642434
0.98605945
0.98569449
0.98532917
0.98496434
0.98459882
0.98423385
0.98386874
0.98350322
0.98313821
0.98277308
0.98240721
0.98204184
0.98167664
0.98131069
0.98094519
0.98057957
0.98021319
0.97984757
0.97948146
0.97911551
0.97874876
0.97838247
0.97801628
0.97764959
0.97728244
0.97691568
0.97654872
0.97618159
0.97581452
0.97544662
0.97507912
0.97471139
0.97434343
0.97397524
0.97360709
0.97323842
0.97286949
0.97250062
0.97213149
0.97176238
0.97139272
0.97102306
0.97065316
0.97028294
0.96991274
0.96954197
0.96917118
0.96880009
0.96842872
0.96805733
0.96768498
0.96731294
0.96694057
0.96656819
0.96619515
0.96582209
0.96544864
0.96507488
0.96470076
0.96432628
0.96395140
0.96357650
0.96320122
0.96282553
0.96244949
0.96207302
0.96169648
0.96131988
0.96094254
0.96056478
0.96018661
0.95980834
0.95942967
0.95905023
0.95867129
0.95829129
0.95791118
0.95753029
0.95714928
0.95676813
0.95638649
0.95600409
0.95562154
0.95523881
0.95485531
0.95447129
0.95408682
0.95370246
0.95331729
0.95293164
0.95254577
0.95215907
0.95177218
0.95138509
0.95099715
0.95060838
0.95021999
0.94983047
0.94944067
0.94905068
0.94865981
0.94826901
0.94787701
0.94748444
0.94709197
0.94669855
0.94630522
0.94591066
0.94551615
0.94512041
0.94472436
0.94432839
0.94393116
0.94353362
0.94313547
0.94273703
0.94233762
0.94193792
0.94153758
0.94113694
0.94073565
0.94033303
0.93993075
0.93952715
0.93912358
0.93871864
0.93831404
0.93790841
0.93750179
0.93709514
0.93668783
0.93627910
0.93587071
0.93546095
0.93505080
0.93464028
0.93422869
0.93381673
0.93340405
0.93299098
0.93257648
0.93216194
0.93174665
0.93133026
0.93091347
0.93049624
0.93007828
0.92965920
0.92923968
0.92881941
0.92839868
0.92797717
0.92755418
0.92713109
0.92670723
0.92628290
0.92585776
0.92543181
0.92500435
0.92457676
0.92414868
0.92371948
0.92328973
0.92285919
0.92242781
0.92199595
0.92156286
0.92112926
0.92069409
0.92025880
0.91982298
0.91938595
0.91894839
0.91850960
0.91807026
0.91763042
0.91718934
0.91674732
0.91630478
0.91586134
0.91541702
0.91497174
0.91452594
0.91407882
0.91363189
0.91318330
0.91273377
0.91228330
0.91183227
0.91137986
0.91092693
0.91047304
0.91001854
0.90956273
0.90910668
0.90864931
0.90819092
0.90773155
0.90727123
0.90681027
0.90634872
0.90588577
0.90542181
0.90495688
0.90449167
0.90402508
0.90355710
0.90308842
0.90261956
0.90214885
0.90167752
0.90120473
0.90073209
0.90025761
0.89978204
0.89930628
0.89882900
0.89835028
0.89787169
0.89739120
0.89690967
0.89642785
0.89594452
0.89546010
0.89497505
0.89448843
0.89400156
0.89351315
0.89302321
0.89253338
0.89204163
0.89154960
0.89105559
0.89056131
0.89006542
0.88956929
0.88907115
0.88857269
0.88807225
0.88757148
0.88706915
0.88656650
0.88606179
0.88555679
0.88505022
0.88454287
0.88403389
0.88352416
0.88301324
0.88250156
0.88198869
0.88147417
0.88095888
0.88044283
0.87992466
0.87940613
0.87888597
0.87836503
0.87784326
0.87731940
0.87679516
0.87626972
0.87574253
0.87521506
0.87468582
0.87415578
0.87362406
0.87309149
0.87255765
0.87202299
0.87148613
0.87094891
0.87041041
0.86987062
0.86932906
0.86878714
0.86824388
0.86769935
0.86715352
0.86660589
0.86605737
0.86550805
0.86495737
0.86440540
0.86385205
0.86329740
0.86274186
0.86218404
0.86162580
0.86106620
0.86050524
0.85994342
0.85937974
0.85881518
0.85824925
0.85768194
0.85711326
0.85654368
0.85597272
0.85539987
0.85482657
0.85425143
0.85367487
0.85309737
0.85251800
0.85193772
0.85135597
0.85077331
0.85018876
0.84960325
0.84901584
0.84842745
0.84783814
0.84724738
0.84665518
0.84606101
0.84546595
0.84486938
0.84427182
0.84367231
0.84307239
0.84247047
0.84186707
0.84126214
0.84065577
0.84004790
0.83943957
0.83882925
0.83821743
0.83760405
0.83699025
0.83637391
0.83575653
0.83513770
0.83451783
0.83389643
0.83327296
0.83264905
0.83202305
0.83139496
0.83076593
0.83013635
0.82950472
0.82887098
0.82823679
0.82760048
0.82696367
0.82632422
0.82568320
0.82504224
0.82439805
0.82375393
0.82310714
0.82245869
0.82180979
0.82115878
0.82050669
0.81985241
0.81919768
0.81854023
0.81788227
0.81722210
0.81656090
0.81589748
0.81523360
0.81456691
0.81389977
0.81323038
0.81255989
0.81188780
0.81121407
0.81053921
0.80986216
0.80918398
0.80850359
0.80782268
0.80713955
0.80645468
0.80576874
0.80508056
0.80439124
0.80370085
0.80300759
0.80231381
0.80161832
0.80092050
0.80022222
0.79952160
0.79881983
0.79811578
0.79741063
0.79670375
0.79599451
0.79528473
0.79457328
0.79386003
0.79314510
0.79242778
0.79170993
0.79098974
0.79026837
0.78954525
0.78881977
0.78809311
0.78736533
0.78663577
0.78590443
0.78517131
0.78443582
0.78369912
0.78296123
0.78222101
0.78147952
0.78073696
0.77999193
0.77924509
0.77849704
0.77774724
0.77699555
0.77624211
0.77548684
0.77473035
0.77397142
0.77321126
0.77244926
0.77168549
0.77092049
0.77015295
0.76938424
0.76861368
0.76784126
0.76706704
0.76629151
0.76551356
0.76473429
0.76395321
0.76317025
0.76238541
0.76159868
0.76081141
0.76002160
0.75922990
0.75843623
0.75764072
0.75684402
0.75604606
0.75524547
0.75444304
0.75363861
0.75283226
0.75202543
0.75121603
0.75040388
0.74959053
0.74877524
0.74795947
0.74714103
0.74631990
0.74549829
0.74467399
0.74384847
0.74302025
0.74219147
0.74135931
0.74052593
0.73969200
0.73885466
0.73801526
0.73717547
0.73633286
0.73548901
0.73464249
0.73379389
0.73294482
0.73209306
0.73123999
0.73038413
0.72952626
0.72866715
0.72780602
0.72694364
0.72607768
0.72521204
0.72434279
0.72347230
0.72259969
0.72172590
0.72084849
0.71997133
0.71909060
0.71820862
0.71732450
0.71643913
0.71555016
0.71466145
0.71376996
0.71287550
0.71198058
0.71108277
0.71018378
0.70928262
0.70837855
0.70747403
0.70656577
0.70565705
0.70474624
0.70383249
0.70291822
0.70200191
0.70108266
0.70016130
0.69923856
0.69831379
0.69738690
0.69645778
0.69552747
0.69459494
0.69365950
0.69272269
0.69178458
0.69084348
0.68990031
0.68895576
0.68800905
0.68706019
0.68611002
0.68515683
0.68420146
0.68324479
0.68228595
0.68132493
0.68036261
0.67939810
0.67843044
0.67746068
0.67648960
0.67551713
0.67454166
0.67356488
0.67258581
0.67160453
0.67062113
0.66963542
0.66864840
0.66765835
0.66666689
0.66567320
0.66467737
0.66368013
0.66267975
0.66167805
0.66067410
0.65966791
0.65865947
0.65764879
0.65663668
0.65562149
0.65460496
0.65358617
0.65256689
0.65154358
0.65051790
0.64949097
0.64846168
0.64743021
0.64639635
0.64536031
0.64432378
0.64328402
0.64224205
0.64119770
0.64015104
0.63910305
0.63805275
0.63700014
0.63594426
0.63488703
0.63382942
0.63276755
0.63170434
0.63063782
0.62957083
0.62850064
0.62742909
0.62635511
0.62527889
0.62419933
0.62311932
0.62203606
0.62095135
0.61986429
0.61877498
0.61768220
0.61658906
0.61549266
0.61439571
0.61329457
0.61219095
0.61108699
0.60997963
0.60887193
0.60775980
0.60664529
0.60553034
0.60441114
0.60329140
0.60216833
0.60104483
0.59991696
0.59878876
0.59765607
0.59652294
0.59538647
0.59424956
0.59310814
0.59196650
0.59082233
0.58967363
0.58852566
0.58737325
0.58621936
0.58506409
0.58390425
0.58274410
0.58158043
0.58041645
0.57924896
0.57807900
0.57690659
0.57573377
0.57455534
0.57337771
0.57219641
0.57101275
0.56982661
0.56863898
0.56744997
0.56625639
0.56506143
0.56386497
0.56266602
0.56146247
0.56025854
0.55905322
0.55784428
0.55663183
0.55541923
0.55420390
0.55298605
0.55176682
0.55054395
0.54931741
0.54809063
0.54686120
0.54562936
0.54439500
0.54315913
0.54191969
0.54067886
0.53943538
0.53818831
0.53693974
0.53568873
0.53443621
0.53318126
0.53192364
0.53066346
0.52940071
0.52813552
0.52686882
0.52559836
0.52432652
0.52305210
0.52177510
0.52049671
0.51921455
0.51793099
0.51664485
0.51535599
0.51406466
0.51277194
0.51147651
0.51017859
0.50887686
0.50757361
0.50626787
0.50496061
0.50364965
0.50233839
0.50102329
0.49970569
0.49838535
0.49706237
0.49573689
0.49441112
0.49308149
0.49174922
0.49041430
0.48907675
0.48773905
0.48639620
0.48505195
0.48370505
0.48235663
0.48100442
0.47965081
0.47829441
0.47693548
0.47557388
0.47421075
0.47284381
0.47147406
0.47010419
0.46873050
0.46735399
0.46597609
0.46459433
0.46320976
0.46182509
0.46043525
0.45904520
0.45765113
0.45625437
0.45485752
0.45345534
0.45205294
0.45064665
0.44923897
0.44782725
0.44641414
0.44499817
0.44358094
0.44215831
0.44073550
0.43930875
0.43788181
0.43644959
0.43501718
0.43357947
0.43214158
0.43069973
0.42925770
0.42781157
0.42636269
0.42491105
0.42345679
0.42200099
0.42054368
0.41908112
0.41761703
0.41615142
0.41468179
0.41321077
0.41173697
0.41026039
0.40878090
0.40730015
0.40581382
0.40432876
0.40283965
