corrn_curve_quintuple
3.40291191
3.38688127
3.37091712
3.35506300
3.33927490
3.32359701
3.30800493
3.29250059
3.27708137
3.26174806
3.24652232
3.23136075
3.21630471
3.20131128
3.18642356
3.17161942
3.15689852
3.14226051
3.12772507
3.11325173
3.09888108
3.08457104
3.07038233
3.05625358
3.04220615
3.02823768
3.01434886
3.00055935
2.98682971
2.97319749
2.95964338
2.94616703
2.93276814
2.91944637
2.90621965
2.89305105
2.87997759
2.86697975
2.85403843
2.84119004
2.82841724
2.81573630
2.80311085
2.79056003
2.77809983
2.76571251
2.75339776
2.74113747
2.72898474
2.71688585
2.70485830
2.69291916
2.68103326
2.66923409
2.65750571
2.64584693
2.63425661
2.62273615
2.61128357
2.59990022
2.58861713
2.57736870
2.56620407
2.55510649
2.54406036
2.53311204
2.52221379
2.51139721
2.50063031
2.48994352
2.47932232
2.46876565
2.45827244
2.44784395
2.43747913
2.42719198
2.41695280
2.40679206
2.39669293
2.38665588
2.37666678
2.36676692
2.35691518
2.34712368
2.33739289
2.32773666
2.31815376
2.30860316
2.29912604
2.28970809
2.28034835
2.27106086
2.26181870
2.25264741
2.24353445
2.23447157
2.22547251
2.21653688
2.20764539
2.19882910
2.19006230
2.18135763
2.17269566
2.16410163
2.15556185
2.14707111
2.13864721
2.13027674
2.12196679
2.11370363
2.10548832
2.09733753
2.08924004
2.08120034
2.07320690
2.06526543
2.05738149
2.04954953
2.04177331
2.03404849
2.02637428
2.01873919
2.01117110
2.00364726
1.99617802
1.98876411
1.98139324
1.97407716
1.96680908
1.95958984
1.95241815
1.94529954
1.93822326
1.93119487
1.92421825
1.91729359
1.91041040
1.90357863
1.89679295
1.89005811
1.88336340
1.87671951
1.87012999
1.86357605
1.85707110
1.85061101
1.84419461
1.83782263
1.83149390
1.82521332
1.81897642
1.81278207
1.80663050
1.80052603
1.79446833
1.78845221
1.78247392
1.77653727
1.77064643
1.76479676
1.75899623
1.75322820
1.74750453
1.74182155
1.73617822
1.73058306
1.72501960
1.71949926
1.71401811
1.70857635
1.70318057
1.69781968
1.69249710
1.68722049
1.68197389
1.67676888
1.67160132
1.66647446
1.66138500
1.65632859
1.65131594
1.64633597
1.64139628
1.63649585
1.63162392
1.62679844
1.62200148
1.61723939
1.61251936
1.60783058
1.60317640
1.59856352
1.59397793
1.58943621
1.58491845
1.58044437
1.57599999
1.57159243
1.56721131
1.56287247
1.55855977
1.55428593
1.55004144
1.54583500
1.54165411
1.53751113
1.53339346
1.52931629
1.52526412
1.52124891
1.51725845
1.51330747
1.50938357
1.50548723
1.50162673
1.49779286
1.49399180
1.49022272
1.48647757
1.48276686
1.47908781
1.47543199
1.47181022
1.46821682
1.46464654
1.46111206
1.45760279
1.45412124
1.45066956
1.44724549
1.44385115
1.44047874
1.43713801
1.43382419
1.43053910
1.42727568
1.42404310
1.42083652
1.41765579
1.41449861
1.41137148
1.40826968
1.40519308
1.40214380
1.39911711
1.39611514
1.39314000
1.39018925
1.38726473
1.38436449
1.38148795
1.37863539
1.37580624
1.37300289
1.37021864
1.36746155
1.36472952
1.36201828
1.35933198
1.35666802
1.35402844
1.35140912
1.34881386
1.34624035
1.34368884
1.34115900
1.33865256
1.33616561
1.33370157
1.33126065
1.32883862
1.32643940
1.32406064
1.32170256
1.31936468
1.31705054
1.31475472
1.31247884
1.31022277
1.30798807
1.30577290
1.30357546
1.30139896
1.29924485
1.29710808
1.29498999
1.29289079
1.29081019
1.28874790
1.28670859
1.28468298
1.28267835
1.28069028
1.27871989
1.27677163
1.27483793
1.27292182
1.27102286
1.26914394
1.26728062
1.26543423
1.26360727
1.26179571
1.25999933
1.25822332
1.25646102
1.25471611
1.25298869
1.25127575
1.24957877
1.24789864
1.24623408
1.24458511
1.24295259
1.24133406
1.23973308
1.23814587
1.23657233
1.23501714
1.23347422
1.23194805
1.23043524
1.22893789
1.22745359
1.22598438
1.22453037
1.22308899
1.22166257
1.22024859
1.21885030
1.21746445
1.21609287
1.21473552
1.21338920
1.21205792
1.21073850
1.20943288
1.20813992
1.20686051
1.20559346
1.20433695
1.20309557
1.20186445
1.20064718
1.19944277
1.19824755
1.19706674
1.19589756
1.19473825
1.19359296
1.19245815
1.19133382
1.19022229
1.18912258
1.18803149
1.18695369
1.18588658
1.18483023
1.18378367
1.18274840
1.18172425
1.18071048
1.17970538
1.17871264
1.17772918
1.17675648
1.17579355
1.17483893
1.17389625
1.17296236
1.17203868
1.17112440
1.17022014
1.16932373
1.16843717
1.16756035
1.16669244
1.16583415
1.16498400
1.16414317
1.16331103
1.16248738
1.16167290
1.16086550
1.16006772
1.15927811
1.15849664
1.15772330
1.15695848
1.15620156
1.15545247
1.15471114
1.15397804
1.15325252
1.15253452
1.15182391
1.15112071
1.15042534
1.14973765
1.14905714
1.14838311
1.14771611
1.14705649
1.14640376
1.14575774
1.14511842
1.14448620
1.14386058
1.14324187
1.14262908
1.14202309
1.14142290
1.14082937
1.14024196
1.13966147
1.13908655
1.13851710
1.13795390
1.13739654
1.13684570
1.13630012
1.13575966
1.13522519
1.13469694
1.13417327
1.13365532
1.13314263
1.13263552
1.13213355
1.13163629
1.13114473
1.13065777
1.13017569
1.12969917
1.12922700
1.12875921
1.12829713
1.12783887
1.12738518
1.12693661
1.12649212
1.12605262
1.12561673
1.12518509
1.12475826
1.12433521
1.12391687
1.12350187
1.12309146
1.12268461
1.12228191
1.12188267
1.12148778
1.12109621
1.12070860
1.12032424
1.11994395
1.11956656
1.11919313
1.11882279
1.11845600
1.11809221
1.11773216
1.11737553
1.11702116
1.11667066
1.11632261
1.11597806
1.11563667
1.11529733
1.11496159
1.11462807
1.11429776
1.11397039
1.11364512
1.11332264
1.11300297
1.11268549
1.11237071
1.11205829
1.11174846
1.11144069
1.11113540
1.11083231
1.11053115
1.11023258
1.10993608
1.10964162
1.10934914
1.10905839
1.10877000
1.10848348
1.10819898
1.10791607
1.10763468
1.10735541
1.10707783
1.10680185
1.10652767
1.10625485
1.10598351
1.10571385
1.10544565
1.10517903
1.10491355
1.10464961
1.10438694
1.10412573
1.10386552
1.10360667
1.10334898
1.10309239
1.10283705
1.10258236
1.10232907
1.10207673
1.10182533
1.10157481
1.10132537
1.10107694
1.10082910
1.10058204
1.10033590
1.10009045
1.09984551
1.09960155
1.09935802
1.09911506
1.09887284
1.09863114
1.09838992
1.09814915
1.09790917
1.09766942
1.09743001
1.09719095
1.09695238
1.09671392
1.09647588
1.09623825
1.09600065
1.09576339
1.09552608
1.09528908
1.09505255
1.09481570
1.09457889
1.09434228
1.09410582
1.09386916
1.09363262
1.09339581
1.09315924
1.09292236
1.09268532
1.09244846
1.09221101
1.09197353
1.09173597
1.09149795
1.09125983
1.09102154
1.09078256
1.09054339
1.09030421
1.09006425
1.08982423
1.08958357
1.08934241
1.08910098
1.08885903
1.08861672
1.08837369
1.08813027
1.08788605
1.08764144
1.08739636
1.08715027
1.08690408
1.08665681
1.08640923
1.08616055
1.08591169
1.08566171
1.08541114
1.08515996
1.08490778
1.08465499
1.08440115
1.08414686
1.08389129
1.08363522
1.08337845
1.08312037
1.08286156
1.08260178
1.08234126
1.08207975
1.08181703
1.08155372
1.08128941
1.08102383
1.08075742
1.08049015
1.08022138
1.07995196
1.07968143
1.07940978
1.07913679
1.07886308
1.07858824
1.07831221
1.07803481
1.07775667
1.07747731
1.07719674
1.07691497
1.07663172
1.07634748
1.07606219
1.07577564
1.07548782
1.07519848
1.07490832
1.07461662
1.07432384
1.07402998
1.07373456
1.07343801
1.07313990
1.07284043
1.07253983
1.07223787
1.07193474
1.07163023
1.07132435
1.07101703
1.07070856
1.07039844
1.07008712
1.06977437
1.06946018
1.06914480
1.06882774
1.06850943
1.06818967
1.06786844
1.06754600
1.06722182
1.06689640
1.06656947
1.06624107
1.06591143
1.06558052
1.06524783
1.06491365
1.06457792
1.06424069
1.06390218
1.06356213
1.06322057
1.06287771
1.06253331
1.06218708
1.06183957
1.06149051
1.06113989
1.06078827
1.06043478
1.06007975
1.05972314
1.05936551
1.05900576
1.05864469
1.05828177
1.05791813
1.05755234
1.05718494
1.05681627
1.05644629
1.05607442
1.05570126
1.05532651
1.05495016
1.05457222
1.05419300
1.05381187
1.05342946
1.05304576
1.05266015
1.05227295
1.05188444
1.05149436
1.05110297
1.05070970
1.05031513
1.04991867
1.04952091
1.04912188
1.04872064
1.04831875
1.04791463
1.04750957
1.04710226
1.04669437
1.04628422
1.04587283
1.04545986
1.04504565
1.04462918
1.04421212
1.04379284
1.04337268
1.04295092
1.04252693
1.04210239
1.04167563
1.04124797
1.04081876
1.04038733
1.03995538
1.03952117
1.03908613
1.03864955
1.03821076
1.03777144
1.03733026
1.03688757
1.03644371
1.03599835
1.03555110
1.03510271
1.03465314
1.03420211
1.03374885
1.03329517
1.03283963
1.03238302
1.03192414
1.03146492
1.03100389
1.03054136
1.03007775
1.02961192
1.02914579
1.02867784
1.02820844
1.02773800
1.02726613
1.02679206
1.02631774
1.02584158
1.02536445
1.02488592
1.02440595
1.02392464
1.02344190
1.02295822
1.02247234
1.02198592
1.02149852
1.02100936
1.02051925
1.02002745
1.01953467
1.01904098
1.01854556
1.01804919
1.01755119
1.01705222
1.01655200
1.01605090
1.01554811
1.01504443
1.01453952
1.01403335
1.01352673
1.01301802
1.01250854
1.01199779
1.01148586
1.01097268
1.01045871
1.00994316
1.00942680
1.00891006
1.00839139
1.00787188
1.00735087
1.00682910
1.00630613
1.00578294
1.00525776
1.00473188
1.00420485
1.00367675
1.00314795
1.00261811
1.00208670
1.00155470
1.00102203
1.00048791
0.99995314
0.99941778
0.99888094
0.99834262
0.99780419
0.99726475
0.99672431
0.99618289
0.99564093
0.99509755
0.99455411
0.99400882
0.99346298
0.99291670
0.99236905
0.99182042
0.99127185
0.99072187
0.99017145
0.98961974
0.98906802
0.98851457
0.98796113
0.98740639
0.98685080
0.98629485
0.98573807
0.98518095
0.98462209
0.98406384
0.98350387
0.98294406
0.98238344
0.98182117
0.98125955
0.98069622
0.98013267
0.97956840
0.97900384
0.97843859
0.97787221
0.97730605
0.97673827
0.97617082
0.97560267
0.97503340
0.97446444
0.97389486
0.97332370
0.97275289
0.97218196
0.97160949
0.97103734
0.97046468
0.96989049
0.96931719
0.96874282
0.96816845
0.96759254
0.96701713
0.96644165
0.96586519
0.96528782
0.96471088
0.96413348
0.96355567
0.96297785
0.96239862
0.96181994
0.96124083
0.96066132
0.96008140
0.95950153
0.95892084
0.95833978
0.95775885
0.95717756
0.95659636
0.95601440
0.95543255
0.95485043
0.95426795
0.95368567
0.95310266
0.95251981
0.95193670
0.95135337
0.95077024
0.95018588
0.94960227
0.94901844
0.94843489
0.94785065
0.94726670
0.94668251
0.94609820
0.94551372
0.94492909
0.94434425
0.94375982
0.94317525
0.94259052
0.94200572
0.94142077
0.94083622
0.94025213
0.93966741
0.93908263
0.93849779
0.93791340
0.93732901
0.93674405
0.93616049
0.93557599
0.93499197
0.93440746
0.93382346
0.93323997
0.93265646
0.93207255
0.93148917
0.93090630
0.93032304
0.92973981
0.92915670
0.92857463
0.92799215
0.92740984
0.92682808
0.92624595
0.92566444
0.92508357
0.92450235
0.92392085
0.92334089
0.92276021
0.92218010
0.92160073
0.92102106
0.92044253
0.91986328
0.91928424
0.91870642
0.91812829
0.91755139
0.91697381
0.91639742
0.91582036
0.91524402
0.91466894
0.91409322
0.91351823
0.91294355
0.91236967
0.91179563
0.91122239
0.91064949
0.91007742
0.90950570
0.90893335
0.90836279
0.90779166
0.90722189
0.90665153
0.90608296
0.90551431
0.90494562
0.90437827
0.90381138
0.90324390
0.90267830
0.90211222
0.90154701
0.90098274
0.90041845
0.89985510
0.89929222
0.89873029
0.89816788
0.89760693
0.89704646
0.89648602
0.89592656
0.89536804
0.89481009
0.89425219
0.89369524
0.89313887
0.89258348
0.89202862
0.89147342
0.89091968
0.89036654
0.88981440
0.88926283
0.88871184
0.88816053
0.88761071
0.88706191
0.88651333
0.88596572
0.88541877
0.88487244
0.88432719
0.88378209
0.88323804
0.88269373
0.88215099
0.88160931
0.88106786
0.88052747
0.87998731
0.87944823
0.87891027
0.87837256
0.87783548
0.87729952
0.87676424
0.87622969
0.87569578
0.87516300
0.87463047
0.87409995
0.87356925
0.87303926
0.87250997
0.87198185
0.87145393
0.87092722
0.87040123
0.86987637
0.86935182
0.86882885
0.86830620
0.86778423
0.86726299
0.86674253
0.86622322
0.86570508
0.86518724
0.86467014
0.86415383
0.86363906
0.86312464
0.86261058
0.86209761
0.86158633
0.86107492
0.86056471
0.86005481
0.85954694
0.85903900
0.85853177
0.85802623
0.85752097
0.85701607
0.85651320
0.85601023
0.85550807
0.85500749
0.85450725
0.85400777
0.85350954
0.85301159
0.85251528
0.85201929
0.85152365
0.85103002
0.85053634
0.85004427
0.84955212
0.84906159
0.84857135
0.84808277
0.84759410
0.84710699
0.84661984
0.84613426
0.84564905
0.84516540
0.84468166
0.84419952
0.84371775
0.84323711
0.84275679
0.84227765
0.84179925
0.84132201
0.84084550
0.84036933
0.83989430
0.83942042
0.83894644
0.83847398
0.83800188
0.83753091
0.83706102
0.83659108
0.83612263
0.83565493
0.83518750
0.83472162
0.83425599
0.83379147
0.83332728
0.83286414
0.83240169
0.83194032
0.83147883
0.83101882
0.83055947
0.83010080
0.82964238
0.82918542
0.82872907
0.82827341
0.82781839
0.82736361
0.82690982
0.82645710
0.82600495
0.82555347
0.82510255
0.82465228
0.82420296
0.82375349
0.82330536
0.82285781
0.82241083
0.82196482
0.82151897
0.82107408
0.82062973
0.82018593
0.81974267
0.81930032
0.81885850
0.81841681
0.81797636
0.81753606
0.81709626
0.81665729
0.81621846
0.81578048
0.81534292
0.81490621
0.81446960
0.81403377
0.81359803
0.81316306
0.81272888
0.81229511
0.81186174
0.81142837
0.81099580
0.81056356
0.81013203
0.80970050
0.80927008
0.80883961
0.80840946
0.80797959
0.80755005
0.80712082
0.80669258
0.80626428
0.80583624
0.80540841
0.80498158
0.80455426
0.80412751
0.80370100
0.80327503
0.80284924
0.80242326
0.80199819
0.80157289
0.80114737
0.80072239
0.80029819
0.79987377
0.79944907
0.79902520
0.79860102
0.79817761
0.79775354
0.79732949
0.79690655
0.79648253
0.79605959
0.79563592
0.79521217
0.79478913
0.79436569
0.79394251
0.79351887
0.79309588
0.79267206
0.79224882
0.79182506
0.79140152
0.79097743
0.79055390
0.79012942
0.78970547
0.78928091
0.78885644
0.78843175
0.78800678
0.78758186
0.78715628
0.78673072
0.78630448
0.78587860
0.78545201
0.78502498
0.78459793
0.78417012
0.78374221
0.78331422
0.78288504
0.78245609
0.78202663
0.78159626
0.78116612
0.78073504
0.78030372
0.77987146
0.77943898
0.77900586
0.77857171
0.77813762
0.77770288
0.77726741
0.77683125
0.77639395
0.77595664
0.77551819
0.77507929
0.77463958
0.77419867
0.77375726
0.77331537
0.77287257
0.77242886
0.77198421
0.77153825
0.77109166
0.77064443
0.77019586
0.76974657
0.76929666
0.76884527
0.76839277
0.76793951
0.76748514
0.76702956
0.76657284
0.76611489
0.76565609
0.76519565
0.76473431
0.76427167
0.76380774
0.76334284
0.76287615
0.76240849
0.76193941
0.76146889
0.76099695
0.76052386
0.76004892
0.75957278
0.75909514
0.75861591
0.75813507
0.75765260
0.75716929
0.75668392
0.75619684
0.75570799
0.75521743
0.75472553
0.75423222
0.75373664
0.75323924
0.75273992
0.75223869
0.75173642
0.75123179
0.75072467
0.75021599
0.74970527
0.74919340
0.74867898
0.74816198
0.74764375
0.74712289
0.74660029
0.74607499
0.74554832
0.74501847
0.74448678
0.74395366
0.74341726
0.74287841
0.74233814
0.74179489
0.74124964
0.74070143
0.74015063
0.73959825
0.73904282
0.73848521
0.73792443
0.73736096
0.73679527
0.73622683
0.73565613
0.73508158
0.73450574
0.73392598
0.73334384
0.73275872
0.73217120
0.73157963
0.73098657
0.73038943
0.72978973
0.72918685
0.72858137
0.72797164
0.72736029
0.72674519
0.72612619
0.72550498
0.72487986
0.72425197
0.72362061
0.72298522
0.72234749
0.72170508
0.72106028
0.72041189
0.71975929
0.71910415
0.71844539
0.71778230
0.71711545
0.71644534
0.71577146
0.71509372
0.71441201
0.71372705
0.71303805
0.71234448
0.71164742
0.71094692
0.71024167
0.70953232
0.70881937
0.70810218
0.70738073
0.70665564
0.70592555
0.70519108
0.70445287
0.70371020
0.70296304
0.70221204
0.70145648
0.70069556
0.69993006
0.69916057
0.69838700
0.69760803
0.69682498
0.69603703
0.69524420
0.69444652
0.69364382
0.69283686
0.69202420
0.69120713
0.69038494
0.68955768
0.68872590
0.68788813
0.68704585
0.68619824
0.68534528
0.68448692
0.68362311
0.68275453
0.68187971
0.68100011
0.68011490
0.67922560
0.67832905
0.67742668
0.67651943
0.67560628
0.67468735
0.67376242
0.67283162
0.67189645
0.67095438
0.67000633
0.66905205
0.66809160
0.66712582
0.66615378
0.66517544
0.66418984
0.66319875
0.66220304
0.66119903
0.66018940
0.65917226
0.65815028
0.65712078
0.65608553
0.65504342
0.65399460
0.65293796
0.65187627
0.65080675
0.64973113
0.64864847
0.64755882
0.64646093
0.64535788
0.64424669
0.64313006
0.64200426
0.64087097
0.63973234
0.63858520
0.63743266
0.63627043
0.63510057
0.63392509
0.63273994
0.63154899
0.63034924
0.62914372
0.62792818
0.62670692
0.62547538
0.62423793
0.62299134
0.62173876
0.62047566
0.61920673
0.61792938
0.61664129
0.61534834
0.61404465
0.61273351
0.61141500
0.61008542
0.60874961
0.60740382
0.60605174
0.60468957
0.60331850
0.60193848
0.60055190
0.59915253
0.59774792
0.59633273
0.59490845
0.59347490
0.59203321
0.59058350
0.58912180
0.58765195
0.58617380
0.58468605
0.58318602
0.58167890
0.58016343
0.57863674
0.57709888
0.57555407
0.57399900
0.57243389
0.57086014
0.56927478
0.56767771
0.56607332
0.56445846
0.56283337
0.56119783
0.55955316
0.55789655
0.55623087
0.55455437
0.55286571
0.55116766
0.54945892
0.54774070
0.54601167
0.54427146
0.54252016
0.54075772
0.53898422
0.53720094
0.53540467
0.53359868
0.53178124
0.52995229
0.52811348
0.52626133
0.52439920
0.52252533
0.52063947
0.51874190
0.51683418
0.51491428
0.51298252
0.51103681
0.50908054
0.50711221
0.50513322
0.50314019
0.50113827
0.49912199
0.49709334
0.49505186
0.49299768
0.49093093
0.48885504
0.48676434
0.48466069
0.48254402
0.48041427
0.47827537
0.47611926
0.47395189
0.47177118
0.46957892
0.46737133
0.46515229
0.46291944
0.46067313
0.45841309
0.45614117
0.45385346
0.45155159
0.44924005
0.44691249
0.44457059
0.44221669
0.43984652
0.43746179
0.43506713
0.43265372
0.43023008
0.42778955
0.42533433
0.42286898
0.42038419
0.41788894
0.41537664
0.41285168
0.41030925
0.40775405
0.40518337
0.40260007
0.39999652
0.39738217
0.39475009
0.39210714
0.38944381
0.38676951
0.38407461
0.38136866
0.37864446
0.37590914
0.37315517
0.37038504
0.36759867
0.36479625
0.36197984
0.35914939
0.35629762
0.35343165
0.35055146
0.34765208
0.34473862
0.34180829
0.33886099
0.33589638
0.33291775
0.32991629
0.32690578
0.32387539
