corrn_curve_cubic
1.40471906
1.40444010
1.40416003
1.40387962
1.40359810
1.40331627
1.40303369
1.40275041
1.40246639
1.40218165
1.40189660
1.40161044
1.40132395
1.40103632
1.40074839
1.40045974
1.40017037
1.39988029
1.39958988
1.39929836
1.39900654
1.39871358
1.39842074
1.39812675
1.39783207
1.39753665
1.39724051
1.39694409
1.39664655
1.39634870
1.39605014
1.39575086
1.39545087
1.39515017
1.39484917
1.39454705
1.39424465
1.39394154
1.39363727
1.39333272
1.39302748
1.39272195
1.39241526
1.39210789
1.39180024
1.39149187
1.39118280
1.39087257
1.39056253
1.39025134
1.38993944
1.38962729
1.38931397
1.38900038
1.38868611
1.38837114
1.38805544
1.38773905
1.38742194
1.38710415
1.38678656
1.38646734
1.38614788
1.38582771
1.38550640
1.38518531
1.38486304
1.38454054
1.38421687
1.38389295
1.38356836
1.38324306
1.38291704
1.38259035
1.38226295
1.38193532
1.38160651
1.38127750
1.38094777
1.38061735
1.38028577
1.37995442
1.37962193
1.37928872
1.37895481
1.37862071
1.37828637
1.37795038
1.37761419
1.37727731
1.37693970
1.37660190
1.37626294
1.37592376
1.37558391
1.37524310
1.37490184
1.37456015
1.37421728
1.37387446
1.37353069
1.37318649
1.37284110
1.37249552
1.37214923
1.37180202
1.37145463
1.37110653
1.37075803
1.37040856
1.37005817
1.36970758
1.36935634
1.36900464
1.36865200
1.36829867
1.36794492
1.36759051
1.36723563
1.36688009
1.36652387
1.36616643
1.36580911
1.36545084
1.36509213
1.36473302
1.36437295
1.36401249
1.36365132
1.36328949
1.36292697
1.36256403
1.36220014
1.36183560
1.36147062
1.36110524
1.36073891
1.36037217
1.36000475
1.35963693
1.35926814
1.35889896
1.35852964
1.35815912
1.35778817
1.35741657
1.35704427
1.35667133
1.35629768
1.35592364
1.35554895
1.35517356
1.35479750
1.35442105
1.35404420
1.35366666
1.35328819
1.35290905
1.35252952
1.35214932
1.35176899
1.35138746
1.35100551
1.35062291
1.35023963
1.34985624
1.34947164
1.34908664
1.34870096
1.34831465
1.34792819
1.34754081
1.34715275
1.34676462
1.34637523
1.34598548
1.34559505
1.34520423
1.34481277
1.34442036
1.34402784
1.34363436
1.34324054
1.34284633
1.34245086
1.34205562
1.34165916
1.34126200
1.34086478
1.34046660
1.34006776
1.33966886
1.33926870
1.33886874
1.33846727
1.33806603
1.33766380
1.33726125
1.33685744
1.33645385
1.33604899
1.33564409
1.33523825
1.33483234
1.33442516
1.33401794
1.33360945
1.33320123
1.33279174
1.33238220
1.33197140
1.33156087
1.33114935
1.33073690
1.33032441
1.32991093
1.32949715
1.32908299
1.32866758
1.32825212
1.32783632
1.32741925
1.32700215
1.32658440
1.32616541
1.32574668
1.32532699
1.32490665
1.32448594
1.32406462
1.32364297
1.32322004
1.32279707
1.32237348
1.32194953
1.32152433
1.32109909
1.32067321
1.32024669
1.31981922
1.31939173
1.31896359
1.31853481
1.31810572
1.31767565
1.31724494
1.31681391
1.31638225
1.31595023
1.31551761
1.31508431
1.31465040
1.31421582
1.31378097
1.31334481
1.31290864
1.31247216
1.31203471
1.31159699
1.31115860
1.31071990
1.31028023
1.30984026
1.30939962
1.30895837
1.30851649
1.30807430
1.30763115
1.30718766
1.30674390
1.30629915
1.30585412
1.30540843
1.30496214
1.30451518
1.30406827
1.30362039
1.30317187
1.30272272
1.30227328
1.30182321
1.30137216
1.30092083
1.30046955
1.30001730
1.29956438
1.29911087
1.29865672
1.29820192
1.29774752
1.29729149
1.29683549
1.29637855
1.29592095
1.29546376
1.29500525
1.29454615
1.29408639
1.29362670
1.29316603
1.29270474
1.29224349
1.29178130
1.29131813
1.29085537
1.29039130
1.28992693
1.28946233
1.28899672
1.28853051
1.28806401
1.28759688
1.28712917
1.28666115
1.28619216
1.28572326
1.28525338
1.28478253
1.28431213
1.28384039
1.28336872
1.28289610
1.28242322
1.28194937
1.28147522
1.28100086
1.28052547
1.28004987
1.27957325
1.27909675
1.27861929
1.27814156
1.27766357
1.27718423
1.27670501
1.27622481
1.27574437
1.27526330
1.27478200
1.27430004
1.27381677
1.27333399
1.27284986
1.27236582
1.27188154
1.27139557
1.27091007
1.27042396
1.26993653
1.26944957
1.26896162
1.26847273
1.26798394
1.26749488
1.26700416
1.26651392
1.26602303
1.26553157
1.26503913
1.26454646
1.26405352
1.26356001
1.26306513
1.26257076
1.26207539
1.26157984
1.26108364
1.26058607
1.26008909
1.25959107
1.25909284
1.25859400
1.25809495
1.25759452
1.25709387
1.25659300
1.25609149
1.25558981
1.25508713
1.25458421
1.25408072
1.25357659
1.25307228
1.25256656
1.25206106
1.25155491
1.25104817
1.25054086
1.25003331
1.24952516
1.24901641
1.24850707
1.24799751
1.24748736
1.24697662
1.24646523
1.24595329
1.24544115
1.24492876
1.24441583
1.24390186
1.24338733
1.24287256
1.24235724
1.24184129
1.24132474
1.24080800
1.24029070
1.23977317
1.23925465
1.23873593
1.23821622
1.23769632
1.23717583
1.23665551
1.23613424
1.23561197
1.23508947
1.23456643
1.23404356
1.23351974
1.23299489
1.23246988
1.23194507
1.23141885
1.23089245
1.23036546
1.22983830
1.22931054
1.22878183
1.22825327
1.22772375
1.22719365
1.22666379
1.22613288
1.22560102
1.22506981
1.22453715
1.22400394
1.22347094
1.22293697
1.22240322
1.22186805
1.22133233
1.22079683
1.22026032
1.21972407
1.21918640
1.21864898
1.21811057
1.21757199
1.21703241
1.21649309
1.21595272
1.21541224
1.21487076
1.21432950
1.21378685
1.21324443
1.21270105
1.21215748
1.21161294
1.21106863
1.21052417
1.20997785
1.20943224
1.20888519
1.20833843
1.20779151
1.20724273
1.20669466
1.20614516
1.20559590
1.20504654
1.20449574
1.20394475
1.20339367
1.20284153
1.20228930
1.20173645
1.20118346
1.20062950
1.20007537
1.19952066
1.19896494
1.19840953
1.19785354
1.19729698
1.19673985
1.19618171
1.19562387
1.19506547
1.19450689
1.19394735
1.19338679
1.19282650
1.19226569
1.19170427
1.19114272
1.19058020
1.19001707
1.18945381
1.18889004
1.18832609
1.18776113
1.18719605
1.18663041
1.18606465
1.18549787
1.18493093
1.18436347
1.18379544
1.18322726
1.18265765
1.18208838
1.18151850
1.18094810
1.18037710
1.17980602
1.17923479
1.17866255
1.17808974
1.17751683
1.17694335
1.17636890
1.17579471
1.17521955
1.17464382
1.17406800
1.17349161
1.17291466
1.17233715
1.17175995
1.17118179
1.17060301
1.17002373
1.16944429
1.16886389
1.16828334
1.16770270
1.16712108
1.16653932
1.16595654
1.16537367
1.16479117
1.16420719
1.16362264
1.16303801
1.16245324
1.16186750
1.16128167
1.16069482
1.16010830
1.15952080
1.15893276
1.15834504
1.15775584
1.15716660
1.15657723
1.15598684
1.15539641
1.15480581
1.15421381
1.15362168
1.15302995
1.15243672
1.15184388
1.15125002
1.15065556
1.15006108
1.14946604
1.14887089
1.14827475
1.14767855
1.14708127
1.14648397
1.14588655
1.14528767
1.14468963
1.14409009
1.14349096
1.14289037
1.14229058
1.14168938
1.14108807
1.14048664
1.13988423
1.13928177
1.13867827
1.13807519
1.13747061
1.13686640
1.13626213
1.13565639
1.13505060
1.13444421
1.13383782
1.13323084
1.13262282
1.13201524
1.13140717
1.13079802
1.13018881
1.12957956
1.12896878
1.12835845
1.12774757
1.12713615
1.12652371
1.12591165
1.12529911
1.12468598
1.12407186
1.12345820
1.12284395
1.12222916
1.12161388
1.12099752
1.12038117
1.11976472
1.11914775
1.11853023
1.11791168
1.11729359
1.11667447
1.11605531
1.11543611
1.11481588
1.11419556
1.11357426
1.11295243
1.11233056
1.11170816
1.11108568
1.11046266
1.10983917
1.10921509
1.10859098
1.10796588
1.10734071
1.10671501
1.10608877
1.10546251
1.10483526
1.10420789
1.10358004
1.10295166
1.10232325
1.10169381
1.10106435
1.10043431
1.09980379
1.09917325
1.09854264
1.09791100
1.09727887
1.09664617
1.09601300
1.09537975
1.09474598
1.09411174
1.09347743
1.09284259
1.09220672
1.09157083
1.09093442
1.09029748
1.08966106
1.08902354
1.08838554
1.08774702
1.08710897
1.08646940
1.08582978
1.08518917
1.08454954
1.08390840
1.08326669
1.08262503
1.08198331
1.08134055
1.08069780
1.08005452
1.07941072
1.07876640
1.07812208
1.07747672
1.07683137
1.07618602
1.07553962
1.07489271
1.07424575
1.07359833
1.07295086
1.07230240
1.07165389
1.07100440
1.07035486
1.06970533
1.06905428
1.06840425
1.06775265
1.06710159
1.06644895
1.06579739
1.06514425
1.06449113
1.06383749
1.06318387
1.06252867
1.06187451
1.06121881
1.06056368
1.05990797
1.05925073
1.05859454
1.05793681
1.05727960
1.05662187
1.05596260
1.05530439
1.05464458
1.05398534
1.05332560
1.05266431
1.05200403
1.05134275
1.05068096
1.05001920
1.04935694
1.04869362
1.04803033
1.04736703
1.04670327
1.04603791
1.04537363
1.04470829
1.04404304
1.04337614
1.04271038
1.04204361
1.04137628
1.04070900
1.04004011
1.03937236
1.03870356
1.03803425
1.03736498
1.03669521
1.03602383
1.03535361
1.03468227
1.03401103
1.03333929
1.03266700
1.03199425
1.03132094
1.03064775
1.02997288
1.02929868
1.02862447
1.02794921
1.02727400
1.02659779
1.02592157
1.02524542
1.02456821
1.02389099
1.02321283
1.02253462
1.02185597
1.02117737
1.02049771
1.01981806
1.01913797
1.01845738
1.01777736
1.01709571
1.01641419
1.01573211
1.01504959
1.01436652
1.01368351
1.01299950
1.01231550
1.01163208
1.01094714
1.01026216
1.00957624
1.00889032
1.00820386
1.00751809
1.00683069
1.00614337
1.00545549
1.00476718
1.00407889
1.00339016
1.00270031
1.00201059
1.00132090
1.00063019
0.99993952
0.99924892
0.99855725
0.99786453
0.99717245
0.99647989
0.99578683
0.99509329
0.99439983
0.99370530
0.99301144
0.99231593
0.99162045
0.99092512
0.99022872
0.98953178
0.98883556
0.98813822
0.98744096
0.98674270
0.98604505
0.98534581
0.98464719
0.98394750
0.98324732
0.98254724
0.98184667
0.98114620
0.98044408
0.97974322
0.97904070
0.97833888
0.97763651
0.97693254
0.97622984
0.97552543
0.97482118
0.97411645
0.97341176
0.97270658
0.97200040
0.97129485
0.97058764
0.96988118
0.96917419
0.96846612
0.96775875
0.96705090
0.96634138
0.96563257
0.96492387
0.96421350
0.96350378
0.96279364
0.96208183
0.96137132
0.96065968
0.95994822
0.95923502
0.95852260
0.95781023
0.95709679
0.95638234
0.95566854
0.95495426
0.95423957
0.95352494
0.95280863
0.95209304
0.95137698
0.95066044
0.94994343
0.94922648
0.94850851
0.94779007
0.94707175
0.94635296
0.94563424
0.94491450
0.94419483
0.94347474
0.94275412
0.94203363
0.94131212
0.94059069
0.93986878
0.93914646
0.93842421
0.93770028
0.93697708
0.93625342
0.93552989
0.93480529
0.93408082
0.93335582
0.93263041
0.93190453
0.93117817
0.93045129
0.92972461
0.92899746
0.92826978
0.92754169
0.92681306
0.92608459
0.92535632
0.92462691
0.92389703
0.92316668
0.92243647
0.92170587
0.92097411
0.92024368
0.91951161
0.91877969
0.91804668
0.91731383
0.91658113
0.91584790
0.91511365
0.91437955
0.91364555
0.91291052
0.91217496
0.91143900
0.91070377
0.90996744
0.90923071
0.90849408
0.90775636
0.90701880
0.90628141
0.90554292
0.90480341
0.90406519
0.90332538
0.90258561
0.90184607
0.90110544
0.90036554
0.89962399
0.89888197
0.89814075
0.89739838
0.89665681
0.89591358
0.89517108
0.89442693
0.89368289
0.89293965
0.89219476
0.89144997
0.89070472
0.88995965
0.88921349
0.88846750
0.88772105
0.88697479
0.88622806
0.88547961
0.88473254
0.88398381
0.88323589
0.88248625
0.88173799
0.88098865
0.88023827
0.87948865
0.87873864
0.87798683
0.87723649
0.87648447
0.87573258
0.87498088
0.87422807
0.87347546
0.87272239
0.87196952
0.87121490
0.87046112
0.86970688
0.86895155
0.86819641
0.86744140
0.86668600
0.86592950
0.86517313
0.86441638
0.86365976
0.86290269
0.86214393
0.86138596
0.86062760
0.85986937
0.85911070
0.85835157
0.85759076
0.85683074
0.85607085
0.85531000
0.85454922
0.85378805
0.85302643
0.85226503
0.85150252
0.85074015
0.84997609
0.84921289
0.84844983
0.84768574
0.84692179
0.84615680
0.84539196
0.84462733
0.84386166
0.84309548
0.84232952
0.84156311
0.84079632
0.84002901
0.83926193
0.83849374
0.83772702
0.83695860
0.83618974
0.83542043
0.83465135
0.83388109
0.83311111
0.83234070
0.83157044
0.83079913
0.83002865
0.82925713
0.82848510
0.82771263
0.82693979
0.82616710
0.82539464
0.82462107
0.82384706
0.82307268
0.82229906
0.82152440
0.82074869
0.81997309
0.81919845
0.81842203
0.81764584
0.81686854
0.81609275
0.81531525
0.81453724
0.81376020
0.81298199
0.81220274
0.81142500
0.81064547
0.80986558
0.80908653
0.80830637
0.80752577
0.80674548
0.80596401
0.80518346
0.80440180
0.80361902
0.80283777
0.80205481
0.80127276
0.80048892
0.79970600
0.79892191
0.79813880
0.79735391
0.79656987
0.79578411
0.79499920
0.79421325
0.79342817
0.79264129
0.79185534
0.79106834
0.79028153
0.78949360
0.78870592
0.78791781
0.78712996
0.78634168
0.78555228
0.78476313
0.78397424
0.78318355
0.78239374
0.78160287
0.78081226
0.78002185
0.77922969
0.77843842
0.77764679
0.77685397
0.77606217
0.77526918
0.77447646
0.77368268
0.77288910
0.77209510
0.77130136
0.77050581
0.76971121
0.76891619
0.76812075
0.76732418
0.76652858
0.76573248
0.76493603
0.76413915
0.76334115
0.76254335
0.76174589
0.76094794
0.76014963
0.75935083
0.75855168
0.75775273
0.75695203
0.75615224
0.75535202
0.75455138
0.75375101
0.75294953
0.75214832
0.75134669
0.75054464
0.74974216
0.74893997
0.74813736
0.74733362
0.74653080
0.74572692
0.74492262
0.74411854
0.74331340
0.74250855
0.74170320
0.74089815
0.74009203
0.73928614
0.73847919
0.73767245
0.73686601
0.73605915
0.73525187
0.73444346
0.73363541
0.73282688
0.73201857
0.73120920
0.73040084
0.72959134
0.72878144
0.72797104
0.72716030
0.72634914
0.72553892
0.72472764
0.72391595
0.72310377
0.72229260
0.72147966
0.72066695
0.71985390
0.71904108
0.71822784
0.71741347
0.71660012
0.71578564
0.71497003
0.71415480
0.71334045
0.71252503
0.71170849
0.71089297
0.71007631
0.70926062
0.70844314
0.70762526
0.70680905
0.70599034
0.70517331
0.70435450
0.70353520
0.70271694
0.70189762
0.70107854
0.70025832
0.69943915
0.69861818
0.69779819
0.69697706
0.69615625
0.69533430
0.69451340
0.69369063
0.69286891
0.69204606
0.69122345
0.69040050
0.68957715
0.68875405
0.68792989
0.68710597
0.68628099
0.68545699
0.68463193
0.68380639
0.68298117
0.68215489
0.68132886
0.68050316
0.67967566
0.67884915
0.67802223
0.67719418
0.67636719
0.67553906
0.67471118
0.67388224
0.67305364
0.67222463
0.67139447
0.67056532
0.66973584
0.66890588
0.66807559
0.66724416
0.66641373
0.66558223
0.66475100
0.66391937
0.66308666
0.66225423
0.66142213
0.66058963
0.65975673
0.65892343
0.65808906
0.65725496
0.65642112
0.65558629
0.65475166
0.65391745
0.65308209
0.65224633
0.65141085
0.65057504
0.64973875
0.64890215
0.64806514
0.64722841
0.64639060
0.64555308
0.64471515
0.64387690
0.64303893
0.64219981
0.64136105
0.64052189
0.63968233
0.63884245
0.63800277
0.63716210
0.63632163
0.63548085
0.63463966
0.63379808
0.63295611
0.63211517
0.63127316
0.63043075
0.62958788
0.62874468
0.62790185
0.62705930
0.62621561
0.62537159
0.62452711
0.62368223
0.62283848
0.62199365
0.62114759
0.62030190
0.61945582
0.61861086
0.61776475
0.61691749
0.61607136
0.61522408
0.61437716
0.61352910
0.61268209
0.61183324
0.61098476
0.61013735
0.60928809
0.60843836
0.60758985
0.60674011
0.60589075
0.60504030
0.60418939
0.60333963
0.60248878
0.60163824
0.60078654
0.59993446
0.59908275
0.59823065
0.59737894
0.59652530
0.59567358
0.59481993
0.59396667
0.59311294
0.59225967
0.59140448
0.59055113
0.58969593
0.58884112
0.58798585
0.58713096
0.58627422
0.58541933
0.58456337
0.58370616
0.58285013
0.58199293
0.58113620
0.58027901
0.57942065
0.57856347
0.57770435
0.57684640
0.57598806
0.57512857
0.57427017
0.57341146
0.57255160
0.57169135
0.57083142
0.56997118
0.56911057
0.56824949
0.56738889
0.56652783
0.56566569
0.56480387
0.56394245
0.56307987
0.56221698
0.56135442
0.56049148
0.55962815
0.55876524
0.55790115
0.55703669
0.55617264
0.55530820
0.55444338
0.55357898
0.55271419
0.55184816
0.55098183
0.55011591
0.54925032
0.54838364
0.54751738
0.54665065
0.54578355
0.54491615
0.54404830
0.54318086
0.54231233
0.54144413
0.54057556
0.53970670
0.53883816
0.53796847
0.53709918
0.53622953
0.53535949
0.53448908
0.53361830
0.53274786
0.53187632
0.53100521
0.53013372
0.52926337
0.52839114
0.52751845
0.52664626
0.52577362
0.52490069
0.52402730
0.52315362
0.52228108
0.52140738
0.52053338
0.51965892
0.51878410
0.51790970
0.51703494
0.51615980
0.51528348
0.51440760
0.51353295
0.51265633
0.51178013
0.51090276
0.51002655
0.50914925
0.50827238
0.50739506
0.50651744
0.50563866
0.50476103
0.50388231
0.50300395
0.50212522
0.50124620
0.50036592
0.49948689
0.49860677
0.49772773
0.49684686
0.49596555
0.49508549
0.49420425
0.49332427
0.49244230
0.49155995
0.49067879
0.48979579
0.48891390
0.48803090
0.48714908
0.48626535
0.48538288
0.48449842
0.48361514
0.48273076
0.48184756
0.48096237
0.48007853
0.47919423
0.47830795
0.47742374
0.47653763
0.47565188
0.47476658
0.47387929
0.47299327
0.47210606
0.47122013
0.47033302
0.46944555
0.46855771
0.46767107
0.46678169
0.46589440
0.46500585
0.46411702
0.46322783
0.46233902
0.46145067
0.46056039
0.45967058
0.45878114
0.45789135
0.45699963
0.45610911
0.45521906
0.45432782
0.45343548
0.45254451
0.45165302
0.45076117
0.44986979
0.44897722
0.44808346
0.44719100
0.44629810
0.44540492
0.44451139
0.44361824
0.44272399
0.44183021
0.44093599
0.44004066
0.43914573
0.43825051
0.43735569
0.43646060
0.43556507
0.43466918
0.43377293
0.43287641
0.43198029
0.43108297
0.43018613
0.42928894
0.42839139
0.42749432
0.42659606
0.42569828
0.42480015
0.42390157
0.42300273
0.42210437
0.42120557
0.42030650
0.41940624
0.41850638
0.41760625
0.41670652
0.41580568
0.41490608
0.41400529
0.41310424
0.41220274
0.41130090
0.41039878
0.40949791
0.40859585
0.40769343
0.40679067
0.40588755
0.40498577
0.40408194
0.40317862
0.40227494
0.40137167
0.40046728
0.39956340
0.39865907
0.39775449
0.39684955
0.39594502
0.39503939
0.39413331
0.39322859
0.39232275
0.39141648
0.39051070
0.38960382
0.38869650
0.38779053
0.38688260
0.38597593
0.38506807
0.38415986
0.38325300
0.38234409
0.38143646
0.38052771
0.37961946
0.37871002
0.37780108
0.37689171
0.37598293
0.37507210
0.37416254
0.37325187
0.37234248
0.37143112
0.37052104
0.36960898
0.36869821
0.36778632
0.36687572
0.36596391
0.36505176
0.36413926
0.36322651
0.36231418
0.36140228
0.36048850
0.35957514
0.35866221
0.35774816
0.35683464
0.35592077
0.35500655
0.35409191
0.35317787
0.35226177
0.35134782
0.35043276
