corrn_curve_quintuple
1.88251590
1.87990992
1.87730607
1.87471149
1.87211903
1.86953599
1.86695844
1.86438673
1.86182048
1.85925987
1.85670860
1.85415943
1.85161938
1.84908126
1.84655241
1.84402913
1.84151143
1.83899930
1.83649618
1.83399515
1.83150329
1.82901334
1.82653593
1.82406043
1.82159060
1.81912609
1.81666706
1.81421707
1.81176917
1.80933008
1.80689644
1.80446823
1.80204545
1.79962808
1.79721945
1.79481289
1.79241522
1.79002291
1.78763250
1.78525075
1.78287452
1.78050692
1.77814119
1.77578096
1.77342931
1.77108296
1.76874190
1.76640272
1.76407562
1.76175039
1.75943043
1.75711908
1.75480961
1.75250856
1.75021290
1.74792245
1.74563704
1.74335699
1.74108196
1.73881228
1.73655421
1.73429469
1.73204361
1.72979768
1.72755376
1.72532135
1.72309078
1.72086857
1.71864820
1.71643601
1.71422904
1.71202714
1.70983013
1.70763834
1.70545159
1.70327290
1.70109605
1.69892755
1.69676389
1.69460522
1.69244854
1.69030284
1.68815926
1.68602049
1.68388668
1.68176093
1.67964307
1.67752406
1.67541307
1.67330699
1.67120565
1.66911229
1.66702087
1.66493724
1.66285862
1.66078317
1.65871409
1.65665136
1.65459058
1.65253900
1.65049071
1.64844872
1.64640852
1.64437610
1.64234830
1.64032393
1.63830728
1.63629524
1.63428955
1.63228696
1.63028776
1.62829608
1.62630924
1.62432841
1.62235080
1.62037786
1.61841105
1.61644904
1.61449283
1.61254141
1.61059461
1.60864957
1.60671344
1.60478049
1.60285342
1.60093250
1.59901460
1.59710282
1.59519546
1.59329279
1.59139453
1.58950220
1.58761300
1.58572846
1.58384970
1.58197682
1.58010704
1.57824314
1.57638371
1.57453012
1.57267948
1.57083479
1.56899714
1.56716132
1.56533115
1.56350553
1.56168418
1.55986737
1.55805481
1.55624798
1.55444565
1.55264755
1.55085381
1.54906575
1.54728335
1.54550514
1.54373007
1.54195931
1.54019417
1.53843333
1.53667925
1.53492697
1.53318014
1.53143770
1.52969938
1.52796789
1.52623818
1.52451387
1.52279377
1.52107802
1.51936876
1.51766255
1.51596053
1.51426522
1.51257154
1.51088329
1.50919920
1.50752037
1.50584581
1.50417412
1.50250892
1.50084659
1.49918973
1.49753806
1.49588802
1.49424574
1.49260520
1.49096861
1.48933850
1.48771122
1.48608798
1.48447119
1.48285601
1.48124832
1.47964116
1.47804158
1.47644468
1.47485306
1.47326304
1.47168042
1.47009938
1.46852466
1.46695281
1.46538712
1.46382300
1.46226514
1.46070885
1.45915995
1.45761261
1.45607147
1.45453189
1.45299963
1.45146996
1.44994311
1.44842238
1.44690423
1.44539116
1.44388292
1.44237633
1.44087569
1.43937997
1.43788578
1.43639760
1.43491319
1.43343042
1.43195462
1.43048146
1.42901203
1.42754733
1.42608645
1.42463037
1.42317581
1.42172701
1.42028202
1.41884167
1.41740294
1.41596992
1.41454056
1.41311484
1.41169180
1.41027442
1.40886066
1.40745052
1.40604504
1.40464210
1.40324275
1.40184804
1.40045690
1.39907028
1.39768731
1.39630779
1.39493191
1.39355947
1.39219169
1.39082537
1.38946452
1.38810820
1.38675435
1.38540511
1.38405925
1.38271787
1.38137895
1.38004449
1.37871337
1.37738580
1.37606167
1.37474195
1.37342466
1.37211168
1.37080318
1.36949699
1.36819528
1.36689684
1.36560188
1.36431017
1.36302378
1.36173976
1.36045907
1.35918172
1.35790866
1.35663892
1.35537152
1.35410838
1.35285046
1.35159486
1.35034244
1.34909338
1.34784759
1.34660497
1.34536841
1.34413237
1.34290134
1.34167269
1.34044717
1.33922765
1.33800947
1.33679457
1.33558278
1.33437600
1.33317147
1.33197011
1.33077364
1.32957949
1.32838758
1.32720142
1.32601668
1.32483586
1.32365914
1.32248453
1.32131311
1.32014558
1.31898113
1.31781985
1.31666242
1.31550717
1.31435673
1.31320845
1.31206233
1.31092186
1.30978267
1.30864814
1.30751584
1.30638739
1.30526108
1.30413852
1.30301988
1.30190326
1.30079055
1.29967985
1.29857380
1.29746992
1.29636973
1.29527330
1.29417811
1.29308750
1.29199896
1.29091415
1.28983222
1.28875399
1.28767856
1.28660442
1.28553561
1.28446800
1.28340480
1.28234524
1.28128614
1.28023223
1.27918112
1.27813129
1.27708659
1.27604387
1.27500322
1.27396686
1.27293399
1.27190165
1.27087437
1.26984975
1.26882795
1.26780810
1.26679176
1.26577884
1.26476870
1.26375972
1.26275568
1.26175355
1.26075496
1.25975896
1.25876409
1.25777426
1.25678625
1.25580164
1.25481967
1.25384108
1.25286361
1.25188951
1.25091877
1.24995056
1.24898577
1.24802282
1.24706312
1.24610607
1.24515151
1.24420032
1.24325014
1.24230404
1.24136042
1.24041932
1.23948083
1.23854550
1.23761269
1.23668238
1.23575456
1.23482995
1.23390782
1.23298817
1.23207092
1.23115620
1.23024464
1.22933616
1.22843019
1.22752587
1.22662406
1.22572529
1.22482901
1.22393506
1.22304352
1.22215505
1.22126904
1.22038602
1.21950469
1.21862640
1.21774979
1.21687621
1.21600497
1.21513735
1.21427145
1.21340720
1.21254587
1.21168692
1.21083154
1.20997785
1.20912571
1.20827659
1.20743100
1.20658635
1.20574462
1.20490515
1.20406857
1.20323423
1.20240154
1.20157224
1.20074458
1.19991914
1.19909718
1.19827671
1.19745787
1.19664311
1.19582921
1.19501753
1.19420923
1.19340251
1.19259914
1.19179666
1.19099638
1.19019941
1.18940395
1.18861185
1.18782062
1.18703272
1.18624631
1.18546260
1.18468036
1.18390142
1.18312388
1.18234908
1.18157572
1.18080556
1.18003630
1.17927022
1.17850563
1.17774360
1.17698306
1.17622565
1.17547084
1.17471625
1.17396543
1.17321541
1.17246854
1.17172422
1.17098012
1.17023972
1.16950011
1.16876355
1.16802956
1.16729635
1.16656558
1.16583735
1.16511041
1.16438601
1.16366344
1.16294333
1.16222460
1.16150825
1.16079378
1.16008061
1.15937042
1.15866208
1.15795559
1.15725093
1.15654756
1.15584712
1.15514849
1.15445218
1.15375718
1.15306343
1.15237251
1.15168344
1.15099609
1.15031106
1.14962731
1.14894526
1.14826552
1.14758757
1.14691185
1.14623733
1.14556507
1.14489454
1.14422625
1.14355914
1.14289421
1.14223103
1.14156954
1.14091021
1.14025157
1.13959564
1.13894132
1.13828872
1.13763772
1.13698893
1.13634224
1.13569667
1.13505274
1.13441093
1.13377073
1.13313170
1.13249517
1.13185979
1.13122599
1.13059429
1.12996416
1.12933560
1.12870861
1.12808412
1.12746074
1.12683885
1.12621856
1.12560024
1.12498300
1.12436773
1.12375446
1.12314227
1.12253201
1.12192277
1.12131550
1.12071067
1.12010637
1.11950353
1.11890264
1.11830364
1.11770567
1.11710961
1.11651453
1.11592178
1.11533003
1.11473970
1.11415168
1.11356414
1.11297852
1.11239471
1.11181183
1.11123085
1.11065161
1.11007292
1.10949601
1.10892138
1.10834720
1.10777527
1.10720423
1.10663449
1.10606657
1.10549998
1.10493512
1.10437116
1.10380896
1.10324757
1.10268797
1.10213005
1.10157258
1.10101767
1.10046315
1.09991077
1.09935882
1.09880935
1.09826034
1.09771296
1.09716722
1.09662230
1.09607905
1.09553658
1.09499619
1.09445615
1.09391812
1.09338171
1.09284568
1.09231125
1.09177796
1.09124631
1.09071578
1.09018599
1.08965820
1.08913159
1.08860566
1.08808128
1.08755846
1.08703592
1.08651533
1.08599585
1.08547748
1.08495980
1.08444399
1.08392932
1.08341568
1.08290276
1.08239172
1.08188171
1.08137275
1.08086489
1.08035763
1.07985186
1.07934749
1.07884415
1.07834183
1.07784013
1.07734025
1.07684097
1.07634309
1.07584661
1.07535072
1.07485617
1.07436224
1.07386929
1.07337770
1.07288707
1.07239775
1.07190938
1.07142199
1.07093550
1.07045034
1.06996575
1.06948243
1.06900003
1.06851854
1.06803834
1.06755869
1.06708024
1.06660272
1.06612608
1.06565070
1.06517580
1.06470216
1.06422933
1.06375740
1.06328669
1.06281717
1.06234811
1.06187991
1.06141250
1.06094595
1.06048056
1.06001597
1.05955222
1.05908961
1.05862779
1.05816638
1.05770612
1.05724665
1.05678794
1.05633074
1.05587388
1.05541782
1.05496251
1.05450864
1.05405480
1.05360203
1.05314965
1.05269906
1.05224848
1.05179858
1.05134978
1.05090201
1.05045457
1.05000818
1.04956246
1.04911743
1.04867307
1.04822973
1.04778669
1.04734467
1.04690365
1.04646292
1.04602283
1.04558369
1.04514522
1.04470769
1.04427045
1.04383415
1.04339813
1.04296303
1.04252888
1.04209465
1.04166203
1.04122928
1.04079781
1.04036621
1.03993622
1.03950608
1.03907685
1.03864817
1.03822038
1.03779242
1.03736601
1.03693946
1.03651413
1.03608928
1.03566427
1.03524078
1.03481713
1.03439463
1.03397262
1.03355044
1.03312973
1.03270881
1.03228904
1.03186974
1.03145024
1.03103215
1.03061420
1.03019669
1.02977996
1.02936366
1.02894745
1.02853199
1.02811726
1.02770297
1.02728841
1.02687523
1.02646211
1.02604975
1.02563706
1.02522576
1.02481454
1.02440365
1.02399346
1.02358295
1.02317381
1.02276468
1.02235589
1.02194777
1.02153999
1.02113187
1.02072507
1.02031822
1.01991205
1.01950619
1.01910060
1.01869533
1.01829033
1.01788597
1.01748120
1.01707741
1.01667419
1.01627090
1.01586820
1.01546546
1.01506328
1.01466166
1.01425996
1.01385879
1.01345759
1.01305688
1.01265643
1.01225652
1.01185649
1.01145696
1.01105767
1.01065857
1.01026029
1.00986154
1.00946333
1.00906527
1.00866740
1.00826968
1.00787244
1.00747506
1.00707813
1.00668196
1.00628535
1.00588914
1.00549280
1.00509688
1.00470104
1.00430602
1.00391044
1.00351531
1.00312024
1.00272530
1.00233075
1.00193632
1.00154161
1.00114734
1.00075343
1.00035930
0.99996553
0.99957214
0.99917848
0.99878454
0.99839129
0.99799809
0.99760492
0.99721177
0.99681898
0.99642588
0.99603345
0.99564037
0.99524760
0.99485518
0.99446243
0.99406964
0.99367752
0.99328503
0.99289283
0.99250031
0.99210838
0.99171580
0.99132379
0.99093140
0.99053896
0.99014679
0.98975456
0.98936259
0.98896990
0.98857811
0.98818558
0.98779363
0.98740155
0.98700875
0.98661684
0.98622413
0.98583168
0.98543911
0.98504672
0.98465420
0.98426126
0.98386882
0.98347558
0.98308288
0.98269001
0.98229666
0.98190381
0.98151080
0.98111696
0.98072362
0.98033043
0.97993640
0.97954281
0.97914907
0.97875448
0.97836068
0.97796632
0.97757211
0.97717699
0.97678236
0.97638780
0.97599268
0.97559704
0.97520180
0.97480631
0.97441062
0.97401497
0.97361841
0.97322226
0.97282585
0.97242917
0.97203222
0.97163530
0.97123779
0.97084000
0.97044226
0.97004422
0.96964619
0.96924755
0.96884891
0.96845000
0.96805073
0.96765148
0.96725160
0.96685169
0.96645146
0.96605091
0.96565033
0.96524873
0.96484745
0.96444582
0.96404416
0.96364180
0.96323941
0.96283662
0.96243348
0.96202995
0.96162605
0.96122171
0.96081736
0.96041260
0.96000741
0.95960184
0.95919583
0.95878974
0.95838360
0.95797666
0.95756930
0.95716149
0.95675359
0.95634529
0.95593615
0.95552757
0.95511787
0.95470805
0.95429743
0.95388668
0.95347580
0.95306441
0.95265223
0.95223991
0.95182741
0.95141410
0.95100026
0.95058594
0.95017179
0.94975677
0.94934127
0.94892556
0.94850898
0.94809222
0.94767528
0.94725745
0.94683875
0.94642051
0.94600107
0.94558136
0.94516148
0.94474068
0.94432000
0.94389806
0.94347555
0.94305317
0.94262981
0.94220658
0.94178208
0.94135766
0.94093196
0.94050597
0.94008010
0.93965293
0.93922546
0.93879738
0.93836903
0.93793968
0.93751007
0.93707981
0.93664928
0.93621810
0.93578554
0.93535338
0.93491987
0.93448643
0.93405158
0.93361714
0.93318165
0.93274514
0.93230866
0.93187152
0.93143291
0.93099473
0.93055513
0.93011516
0.92967486
0.92923347
0.92879174
0.92834929
0.92790649
0.92746221
0.92701795
0.92657295
0.92612683
0.92568035
0.92523346
0.92478586
0.92433711
0.92388795
0.92343806
0.92298775
0.92253667
0.92208407
0.92163143
0.92117804
0.92072421
0.92026958
0.91981416
0.91935720
0.91890017
0.91844269
0.91798408
0.91752496
0.91706507
0.91660434
0.91614319
0.91568081
0.91521794
0.91475348
0.91428897
0.91382397
0.91335776
0.91289105
0.91242312
0.91195469
0.91148579
0.91101565
0.91054460
0.91007308
0.90960066
0.90912741
0.90865322
0.90817854
0.90770255
0.90722685
0.90674946
0.90627116
0.90579195
0.90531223
0.90483113
0.90434956
0.90386705
0.90338399
0.90289962
0.90241510
0.90192925
0.90144242
0.90095463
0.90046592
0.89997664
0.89948681
0.89899559
0.89850340
0.89801027
0.89751693
0.89702222
0.89652614
0.89602941
0.89553259
0.89503391
0.89453466
0.89403397
0.89353352
0.89303124
0.89252789
0.89202444
0.89151949
0.89101311
0.89050697
0.88999891
0.88948986
0.88898060
0.88846986
0.88795806
0.88744570
0.88693179
0.88641770
0.88590211
0.88538499
0.88486811
0.88434929
0.88383030
0.88330931
0.88278815
0.88226539
0.88174249
0.88121759
0.88069244
0.88016533
0.87963797
0.87910909
0.87857996
0.87804879
0.87751742
0.87698450
0.87645088
0.87591565
0.87537974
0.87484270
0.87430497
0.87376610
0.87322561
0.87268442
0.87214255
0.87159857
0.87105433
0.87050848
0.86996193
0.86941464
0.86886525
0.86831559
0.86776479
0.86721227
0.86665956
0.86610513
0.86554997
0.86499317
0.86443560
0.86387682
0.86331730
0.86275559
0.86219363
0.86163045
0.86106603
0.86049989
0.85993349
0.85936581
0.85879693
0.85822681
0.85765493
0.85708224
0.85650885
0.85593414
0.85535822
0.85478098
0.85420252
0.85362324
0.85304171
0.85245986
0.85187673
0.85129231
0.85070711
0.85012009
0.84953229
0.84894319
0.84835278
0.84776106
0.84716854
0.84657471
0.84597903
0.84538303
0.84478522
0.84418609
0.84358609
0.84298428
0.84238166
0.84177763
0.84117280
0.84056613
0.83995858
0.83934920
0.83873894
0.83812785
0.83751539
0.83690156
0.83628582
0.83566929
0.83505133
0.83443247
0.83381174
0.83319070
0.83256773
0.83194335
0.83131752
0.83069034
0.83006175
0.82943281
0.82880194
0.82816966
0.82753591
0.82690184
0.82626529
0.82562781
0.82498895
0.82434916
0.82370793
0.82306470
0.82242114
0.82177558
0.82112798
0.82047956
0.81983070
0.81917987
0.81852700
0.81787381
0.81721856
0.81656295
0.81590475
0.81524506
0.81458559
0.81392292
0.81326047
0.81259540
0.81192878
0.81126183
0.81059285
0.80992289
0.80925083
0.80857844
0.80790340
0.80722797
0.80655043
0.80587195
0.80519135
0.80451041
0.80382673
0.80314272
0.80245656
0.80176941
0.80108076
0.80039056
0.79969936
0.79900605
0.79831173
0.79761529
0.79691846
0.79621949
0.79551890
0.79481734
0.79411365
0.79340893
0.79270325
0.79199479
0.79128593
0.79057548
0.78986280
0.78914978
0.78843452
0.78771823
0.78699975
0.78628030
0.78555923
0.78483589
0.78411216
0.78338686
0.78265987
0.78193132
0.78120047
0.78046923
0.77973576
0.77900123
0.77826505
0.77752663
0.77678715
0.77604668
0.77530454
0.77456074
0.77381528
0.77306755
0.77231875
0.77156887
0.77081678
0.77006355
0.76930937
0.76855284
0.76779461
0.76703530
0.76627437
0.76551167
0.76474734
0.76398130
0.76321417
0.76244472
0.76167417
0.76090190
0.76012799
0.75935297
0.75857554
0.75779708
0.75701688
0.75623496
0.75545136
0.75466659
0.75387951
0.75309126
0.75230132
0.75150963
0.75071619
0.74992100
0.74912539
0.74832739
0.74752762
0.74672601
0.74592269
0.74511833
0.74431284
0.74350485
0.74269515
0.74188359
0.74107025
0.74025657
0.73944044
0.73862171
0.73780191
0.73698031
0.73615838
0.73533391
0.73450688
0.73367952
0.73284961
0.73201862
0.73118506
0.73035111
0.72951390
0.72867560
0.72783692
0.72699496
0.72615108
0.72530696
0.72446016
0.72361227
0.72276185
0.72190950
0.72105682
0.72020160
0.71934522
0.71848620
0.71762531
0.71676332
0.71589947
0.71503452
0.71416614
0.71329822
0.71242685
0.71155438
0.71067995
0.70980449
0.70892556
0.70804703
0.70716509
0.70628205
0.70539702
0.70451089
0.70362133
0.70273218
0.70184039
0.70094580
0.70005090
0.69915328
0.69825462
0.69735395
0.69645053
0.69554682
0.69463953
0.69373194
0.69282241
0.69191011
0.69099744
0.69008290
0.68916558
0.68824631
0.68732583
0.68640347
0.68547915
0.68455278
0.68362536
0.68269590
0.68176370
0.68083029
0.67989574
0.67895837
0.67801910
0.67707861
0.67613613
0.67519166
0.67424606
0.67329760
0.67234714
0.67139554
0.67044194
0.66948633
0.66852958
0.66757083
0.66660910
0.66564543
0.66468063
0.66371459
0.66274574
0.66177575
0.66080363
0.65982949
0.65885340
0.65787518
0.65689582
0.65591361
0.65493016
0.65394467
0.65295721
0.65196852
0.65097687
0.64998406
0.64898920
0.64799227
0.64699328
0.64599223
0.64498992
0.64398472
0.64297836
0.64196992
0.64096116
0.63994857
0.63893380
0.63791795
0.63689993
0.63587991
0.63485770
0.63383348
0.63280895
0.63178139
0.63075181
0.62972003
0.62868614
0.62765109
0.62661392
0.62557464
0.62453229
0.62348876
0.62244503
0.62139726
0.62034832
0.61929629
0.61824396
0.61718862
0.61613211
0.61507337
0.61401259
0.61294868
0.61188448
0.61081725
0.60974875
0.60867810
0.60760540
0.60652944
0.60545330
0.60437411
0.60329454
0.60221101
0.60112521
0.60003923
0.59895008
0.59786076
0.59676725
0.59567155
0.59457559
0.59347562
0.59237528
0.59127184
0.59016813
0.58906030
0.58795231
0.58684007
0.58572758
0.58461195
0.58349607
0.58237593
0.58125574
0.58013323
0.57900643
0.57788053
0.57675044
0.57561905
0.57448649
0.57334960
0.57221258
0.57107227
0.56993184
0.56878812
0.56764216
0.56649395
0.56534552
0.56419176
0.56303895
0.56188271
0.56072433
0.55956369
0.55840176
0.55723864
0.55607122
0.55490262
0.55373272
0.55256056
0.55138406
0.55020735
0.54902947
0.54784821
0.54666369
0.54547918
0.54429218
0.54310289
0.54191242
0.54071855
0.53952128
0.53832394
0.53712419
0.53592225
0.53471801
0.53351247
0.53230363
0.53109359
0.52988114
0.52866536
0.52744828
0.52622899
0.52500841
0.52378563
0.52256041
0.52133286
0.52010299
0.51887090
0.51763752
0.51640065
0.51516259
0.51392220
0.51267947
0.51143556
0.51018815
0.50893955
0.50768860
0.50643519
0.50517954
0.50392271
0.50266340
0.50140186
0.50013678
0.49887040
0.49760177
0.49633184
0.49505847
0.49378500
0.49250796
0.49122867
0.48994688
0.48866271
0.48737627
0.48608974
0.48479962
0.48350712
0.48221223
0.48091494
0.47961768
0.47831561
0.47701235
0.47570669
0.47439974
0.47308927
0.47177763
0.47046346
0.46914701
0.46782814
0.46650797
0.46518428
0.46385804
0.46253186
0.46120215
0.45986989
0.45853645
0.45719947
0.45585992
0.45452046
0.45317617
0.45183184
0.45048382
0.44913335
0.44778298
0.44642762
0.44507224
0.44371327
0.44235313
0.44098925
0.43962421
0.43825658
0.43688791
0.43551421
0.43414050
0.43276316
0.43138582
0.43000355
0.42862128
0.42723407
0.42584686
0.42445600
0.42306516
0.42167052
0.42027341
0.41887382
0.41747188
0.41606864
0.41466410
0.41325469
0.41184399
0.41043199
0.40901629
0.40759944
0.40618009
0.40475823
0.40333375
0.40190823
0.40047752
0.39904821
0.39761518
