corrn_curve_quintuple
0.36560884
0.37098546
0.37634907
0.38168497
0.38700788
0.39230285
0.39757800
0.40283261
0.40806750
0.41328233
0.41846962
0.42364409
0.42879156
0.43392662
0.43903443
0.44412249
0.44919085
0.45423954
0.45926170
0.46427123
0.46925399
0.47422452
0.47916162
0.48408656
0.48899184
0.49387820
0.49874533
0.50358626
0.50841474
0.51321750
0.51800126
0.52276605
0.52751192
0.53223892
0.53694058
0.54162996
0.54629380
0.55093899
0.55557228
0.56018057
0.56476999
0.56933460
0.57388742
0.57842149
0.58293095
0.58742212
0.59189505
0.59635626
0.60078634
0.60520478
0.60960513
0.61398106
0.61834539
0.62268575
0.62700792
0.63131225
0.63559910
0.63986788
0.64411926
0.64835265
0.65255642
0.65675493
0.66092978
0.66508717
0.66923286
0.67334938
0.67745458
0.68153650
0.68560714
0.68965491
0.69368524
0.69769845
0.70169488
0.70567398
0.70963608
0.71357574
0.71750427
0.72140991
0.72529903
0.72917139
0.73303239
0.73686597
0.74068798
0.74449367
0.74828277
0.75204982
0.75579518
0.75953485
0.76325264
0.76695409
0.77063950
0.77430326
0.77795592
0.78158732
0.78520233
0.78880418
0.79238732
0.79595185
0.79950537
0.80303542
0.80655220
0.81005056
0.81353827
0.81700509
0.82045645
0.82389440
0.82731167
0.83071361
0.83409726
0.83746815
0.84082579
0.84416329
0.84748517
0.85078951
0.85408098
0.85735717
0.86061571
0.86385883
0.86708490
0.87029563
0.87349130
0.87667662
0.87983992
0.88299059
0.88612426
0.88924053
0.89234451
0.89543117
0.89850332
0.90156052
0.90460327
0.90762914
0.91064265
0.91364135
0.91662352
0.91958901
0.92254225
0.92547889
0.92840116
0.93130694
0.93420079
0.93707803
0.93993702
0.94278588
0.94561869
0.94843720
0.95124184
0.95403225
0.95680885
0.95956944
0.96231591
0.96504870
0.96776763
0.97047074
0.97315809
0.97583191
0.97849383
0.98114207
0.98377471
0.98639377
0.98899559
0.99158758
0.99416435
0.99672749
0.99927740
1.00181016
1.00433316
1.00684118
1.00933591
1.01181723
1.01428204
1.01673535
1.01917553
1.02159901
1.02401304
1.02641226
1.02879849
1.03117018
1.03352878
1.03587626
1.03820757
1.04052781
1.04283337
1.04512466
1.04740666
1.04967089
1.05192571
1.05416807
1.05639453
1.05861011
1.06081319
1.06300052
1.06517868
1.06733974
1.06949311
1.07162933
1.07375502
1.07586670
1.07796930
1.08005515
1.08213195
1.08419352
1.08624438
1.08828026
1.09030716
1.09231903
1.09432194
1.09630842
1.09828597
1.10024870
1.10220252
1.10414016
1.10606763
1.10798465
1.10988710
1.11177943
1.11365855
1.11552481
1.11738214
1.11922527
1.12105551
1.12287702
1.12468434
1.12648025
1.12826732
1.13003914
1.13180097
1.13355149
1.13528957
1.13701628
1.13873050
1.14043612
1.14212816
1.14380896
1.14547756
1.14713748
1.14878401
1.15041956
1.15204415
1.15365889
1.15526043
1.15685111
1.15843095
1.15999880
1.16155706
1.16310456
1.16464018
1.16616510
1.16767834
1.16918085
1.17067287
1.17215421
1.17362512
1.17508430
1.17653519
1.17797354
1.17940039
1.18081793
1.18222392
1.18361968
1.18500410
1.18637928
1.18774318
1.18909696
1.19044045
1.19177378
1.19309596
1.19440903
1.19571113
1.19700211
1.19828413
1.19955510
1.20081620
1.20206727
1.20330852
1.20453803
1.20575862
1.20696938
1.20817035
1.20936064
1.21054119
1.21171291
1.21287405
1.21402379
1.21516478
1.21629625
1.21741806
1.21853032
1.21963313
1.22072395
1.22180771
1.22288046
1.22394453
1.22499929
1.22604230
1.22707756
1.22810344
1.22912011
1.23012598
1.23112339
1.23211160
1.23308922
1.23405836
1.23501911
1.23596866
1.23691051
1.23784267
1.23876505
1.23967921
1.24058432
1.24147988
1.24236653
1.24324421
1.24411244
1.24497249
1.24582242
1.24666423
1.24749790
1.24832093
1.24913651
1.24994223
1.25073985
1.25152823
1.25230859
1.25307983
1.25384188
1.25459603
1.25534104
1.25607818
1.25680574
1.25752537
1.25823610
1.25893791
1.25963243
1.26031755
1.26099488
1.26166341
1.26232367
1.26297520
1.26361857
1.26425468
1.26488116
1.26550045
1.26611073
1.26671246
1.26730745
1.26789307
1.26847067
1.26904111
1.26960231
1.27015600
1.27070213
1.27123956
1.27176874
1.27229120
1.27280467
1.27331037
1.27380824
1.27429874
1.27478111
1.27525543
1.27572203
1.27618166
1.27663262
1.27707630
1.27751200
1.27794017
1.27836142
1.27877413
1.27917968
1.27957742
1.27996771
1.28035025
1.28072595
1.28109396
1.28145431
1.28180732
1.28215271
1.28249106
1.28282188
1.28314541
1.28346172
1.28377054
1.28407266
1.28436710
1.28465440
1.28493457
1.28520759
1.28547334
1.28573201
1.28598363
1.28622823
1.28646562
1.28669604
1.28691949
1.28713601
1.28734559
1.28754811
1.28774362
1.28793226
1.28811423
1.28828936
1.28845757
1.28861899
1.28877367
1.28892161
1.28906273
1.28919715
1.28932481
1.28944591
1.28956030
1.28966816
1.28976934
1.28986396
1.28995189
1.29003337
1.29010840
1.29017688
1.29023889
1.29029437
1.29034346
1.29038619
1.29042249
1.29045237
1.29047596
1.29049320
1.29050413
1.29050877
1.29050714
1.29049927
1.29048518
1.29046487
1.29043837
1.29040575
1.29036695
1.29032199
1.29027104
1.29021390
1.29015069
1.29008153
1.29000629
1.28992515
1.28983788
1.28974464
1.28964559
1.28954052
1.28942970
1.28931280
1.28919021
1.28906167
1.28892738
1.28878716
1.28864135
1.28848964
1.28833229
1.28816906
1.28800035
1.28782567
1.28764556
1.28745964
1.28726820
1.28707097
1.28686843
1.28666044
1.28644638
1.28622726
1.28600224
1.28577205
1.28553653
1.28529496
1.28504848
1.28479615
1.28453876
1.28427617
1.28400777
1.28373417
1.28345543
1.28317111
1.28288169
1.28258694
1.28228713
1.28198182
1.28167146
1.28135586
1.28103478
1.28070899
1.28037802
1.28004187
1.27970056
1.27935383
1.27900252
1.27864611
1.27828487
1.27791830
1.27754638
1.27716997
1.27678858
1.27640215
1.27601104
1.27561468
1.27521333
1.27480735
1.27439649
1.27398102
1.27356033
1.27313510
1.27270502
1.27227044
1.27183070
1.27138646
1.27093747
1.27048372
1.27002553
1.26956190
1.26909429
1.26862193
1.26814491
1.26766318
1.26717721
1.26668696
1.26619169
1.26569181
1.26518773
1.26467907
1.26416549
1.26364809
1.26312580
1.26259898
1.26206809
1.26153271
1.26099286
1.26044856
1.25990065
1.25934793
1.25879076
1.25822924
1.25766375
1.25709349
1.25651930
1.25594124
1.25535846
1.25477179
1.25418038
1.25358516
1.25298665
1.25238295
1.25177503
1.25116338
1.25054798
1.24992797
1.24930429
1.24867597
1.24804447
1.24740840
1.24676823
1.24612495
1.24547657
1.24482470
1.24416925
1.24350926
1.24284584
1.24217884
1.24150691
1.24083148
1.24015318
1.23946986
1.23878371
1.23809310
1.23739854
1.23670071
1.23599901
1.23529397
1.23458459
1.23387195
1.23315487
1.23243463
1.23171113
1.23098275
1.23025232
1.22951698
1.22877909
1.22803636
1.22729161
1.22654210
1.22578946
1.22503372
1.22427378
1.22351084
1.22274366
1.22197412
1.22119976
1.22042301
1.21964333
1.21885891
1.21807159
1.21728070
1.21648699
1.21568974
1.21488837
1.21408483
1.21327791
1.21246683
1.21165299
1.21083640
1.21001510
1.20919173
1.20836500
1.20753492
1.20670082
1.20586467
1.20502528
1.20418252
1.20333586
1.20248729
1.20163539
1.20078024
1.19992193
1.19905963
1.19819488
1.19732757
1.19645707
1.19558341
1.19470587
1.19382661
1.19294351
1.19205800
1.19117009
1.19027839
1.18938424
1.18848638
1.18758546
1.18668223
1.18577596
1.18486734
1.18395571
1.18304116
1.18212356
1.18120373
1.18028029
1.17935457
1.17842592
1.17749435
1.17656063
1.17562334
1.17468377
1.17374141
1.17279620
1.17184890
1.17089801
1.16994507
1.16898924
1.16803069
1.16707014
1.16610752
1.16514137
1.16417254
1.16320091
1.16222662
1.16125034
1.16027135
1.15928976
1.15830622
1.15732001
1.15633034
1.15533884
1.15434472
1.15334797
1.15235024
1.15134903
1.15034532
1.14933904
1.14833176
1.14732037
1.14630719
1.14529075
1.14427419
1.14325356
1.14223035
1.14120559
1.14017911
1.13914934
1.13811797
1.13708417
1.13604795
1.13500932
1.13396914
1.13292573
1.13188079
1.13083435
1.12978470
1.12873271
1.12767916
1.12662338
1.12556607
1.12450569
1.12344380
1.12237886
1.12131244
1.12024464
1.11917294
1.11810155
1.11702619
1.11595038
1.11487061
1.11379130
1.11270805
1.11162352
1.11053684
1.10944891
1.10835707
1.10726569
1.10617051
1.10507502
1.10397735
1.10287590
1.10177499
1.10067031
1.09956531
1.09845827
1.09734748
1.09623732
1.09512333
1.09400918
1.09289304
1.09177320
1.09065396
1.08953194
1.08840799
1.08728303
1.08615615
1.08502644
1.08389575
1.08276402
1.08163050
1.08049325
1.07935685
1.07821767
1.07707768
1.07593390
1.07479112
1.07364569
1.07249837
1.07135021
1.07019838
1.06904762
1.06789417
1.06673897
1.06558299
1.06442528
1.06326396
1.06210379
1.06094087
1.05977733
1.05861211
1.05744514
1.05627660
1.05510632
1.05393547
1.05276097
1.05158688
1.05041206
1.04923467
1.04805667
1.04687622
1.04569508
1.04451336
1.04332911
1.04214421
1.04095700
1.03976906
1.03857970
1.03738983
1.03619749
1.03500456
1.03381026
1.03261449
1.03141916
1.03022041
1.02902132
1.02782070
1.02661878
1.02541535
1.02421152
1.02300542
1.02179883
1.02059278
1.01938358
1.01817383
1.01696195
1.01574964
1.01453591
1.01332298
1.01210675
1.01089023
1.00967233
1.00845326
1.00723384
1.00601326
1.00479033
1.00356728
1.00234392
1.00111843
0.99989264
0.99866668
0.99743851
0.99620814
0.99497864
0.99374798
0.99251616
0.99128321
0.99005014
0.98881493
0.98758065
0.98634321
0.98510560
0.98386803
0.98262835
0.98138749
0.98014774
0.97890580
0.97766385
0.97641993
0.97517695
0.97393099
0.97268599
0.97143894
0.97019091
0.96894293
0.96769398
0.96644511
0.96519319
0.96394346
0.96269070
0.96143909
0.96018646
0.95893094
0.95767764
0.95642126
0.95516513
0.95390813
0.95265120
0.95139342
0.95013383
0.94887540
0.94761402
0.94635403
0.94509312
0.94383034
0.94256888
0.94130662
0.94004146
0.93877764
0.93751411
0.93624770
0.93498255
0.93371677
0.93244814
0.93118196
0.92991390
0.92864629
0.92737576
0.92610676
0.92483804
0.92356758
0.92229549
0.92102477
0.91975339
0.91848149
0.91720991
0.91593556
0.91466274
0.91338931
0.91211527
0.91084064
0.90956640
0.90829061
0.90701425
0.90573840
0.90446200
0.90318602
0.90190855
0.90063150
0.89935405
0.89807598
0.89679848
0.89551951
0.89424103
0.89296207
0.89168274
0.89040392
0.88912249
0.88784276
0.88656260
0.88528309
0.88400207
0.88272171
0.88144084
0.88015968
0.87887813
0.87759619
0.87631377
0.87503217
0.87375021
0.87246779
0.87118513
0.86990203
0.86861968
0.86733820
0.86605522
0.86477193
0.86348835
0.86220556
0.86092259
0.85963816
0.85835661
0.85707273
0.85578969
0.85450533
0.85322181
0.85193915
0.85065616
0.84937198
0.84808869
0.84680617
0.84552249
0.84423851
0.84295447
0.84167233
0.84038895
0.83910552
0.83782292
0.83653911
0.83525625
0.83397436
0.83269126
0.83140709
0.83012586
0.82884258
0.82756009
0.82627872
0.82499619
0.82371567
0.82243303
0.82115035
0.81986980
0.81858803
0.81730841
0.81602670
0.81474706
0.81346534
0.81218462
0.81090608
0.80962550
0.80834592
0.80706639
0.80578798
0.80450854
0.80323024
0.80195201
0.80067494
0.79939795
0.79811888
0.79684305
0.79556526
0.79428976
0.79301219
0.79173791
0.79046267
0.78918659
0.78791272
0.78663911
0.78536338
0.78409109
0.78281690
0.78154387
0.78027212
0.77899948
0.77772813
0.77645699
0.77518716
0.77391538
0.77264600
0.77137687
0.77010690
0.76883827
0.76757087
0.76630385
0.76503603
0.76376946
0.76250330
0.76123840
0.75997381
0.75870748
0.75744352
0.75617999
0.75491778
0.75365590
0.75239437
0.75113114
0.74987033
0.74861085
0.74735089
0.74609218
0.74483396
0.74357614
0.74231980
0.74106279
0.73980718
0.73854994
0.73729529
0.73604204
0.73478827
0.73353593
0.73228307
0.73103166
0.72978179
0.72853143
0.72728145
0.72603305
0.72478514
0.72353785
0.72229097
0.72104569
0.71979986
0.71855767
0.71731400
0.71607087
0.71482830
0.71358737
0.71234583
0.71110604
0.70986684
0.70862919
0.70739118
0.70615580
0.70492008
0.70368487
0.70245028
0.70121643
0.69998418
0.69875364
0.69752269
0.69629240
0.69506289
0.69383596
0.69260875
0.69138128
0.69015535
0.68893234
0.68770793
0.68648529
0.68526231
0.68404313
0.68282267
0.68160286
0.68038600
0.67916874
0.67795130
0.67673767
0.67552272
0.67430866
0.67309738
0.67188585
0.67067512
0.66946635
0.66825725
0.66705106
0.66584466
0.66463805
0.66343531
0.66223144
0.66103051
0.65982837
0.65862917
0.65742971
0.65623331
0.65503572
0.65384101
0.65264522
0.65145232
0.65025940
0.64906937
0.64787821
0.64669004
0.64550190
0.64431563
0.64312928
0.64194494
0.64076156
0.63958018
0.63839979
0.63721937
0.63604097
0.63486459
0.63368718
0.63251273
0.63133838
0.63016608
0.62899574
0.62782451
0.62665626
0.62548916
0.62432202
0.62315807
0.62199409
0.62083220
0.61967049
0.61851079
0.61735219
0.61619571
0.61503832
0.61388408
0.61273096
0.61157898
0.61042714
0.60927846
0.60813083
0.60698446
0.60583926
0.60469423
0.60355129
0.60241063
0.60127107
0.60013280
0.59899565
0.59785981
0.59672608
0.59559170
0.59446043
0.59333041
0.59220163
0.59107509
0.58994883
0.58882482
0.58770208
0.58658062
0.58546045
0.58434255
0.58322595
0.58210968
0.58099657
0.57988391
0.57877257
0.57766344
0.57655478
0.57544843
0.57434333
0.57324056
0.57213829
0.57103826
0.56993873
0.56884146
0.56774654
0.56665302
0.56556090
0.56446923
0.56338003
0.56229216
0.56120658
0.56012157
0.55903992
0.55795875
0.55687905
0.55580071
0.55472394
0.55364864
0.55257662
0.55150523
0.55043534
0.54936686
0.54830177
0.54723640
0.54617340
0.54511202
0.54405301
0.54299554
0.54193869
0.54088525
0.53983243
0.53878026
0.53773068
0.53668435
0.53563876
0.53459385
0.53355237
0.53251158
0.53147414
0.53043658
0.52940065
0.52836899
0.52733632
0.52630794
0.52527948
0.52425258
0.52322916
0.52220660
0.52118652
0.52016722
0.51915142
0.51813559
0.51712318
0.51611157
0.51510258
0.51409441
0.51308975
0.51208505
0.51108386
0.51008353
0.50908575
0.50808982
0.50709566
0.50610406
0.50511344
0.50412540
0.50313837
0.50215479
0.50117223
0.50019140
0.49921325
0.49823614
0.49726165
0.49628985
0.49531826
0.49435016
0.49338391
0.49241867
0.49145701
0.49049637
0.48953838
0.48858151
0.48762738
0.48667516
0.48572399
0.48477635
0.48383071
0.48288692
0.48194514
0.48100446
0.48006732
0.47913138
0.47819815
0.47726688
0.47633684
0.47540953
0.47448503
0.47356251
0.47264200
0.47172348
0.47080625
0.46989176
0.46898004
0.46806969
0.46716204
0.46625731
0.46535383
0.46445240
0.46355376
0.46265726
0.46176276
0.46087043
0.45998018
0.45909274
0.45820670
0.45732347
0.45644236
0.45556344
0.45468736
0.45381264
0.45294083
0.45207117
0.45120367
0.45033840
0.44947592
0.44861499
0.44775686
0.44690099
0.44604732
0.44519585
0.44434658
0.44350097
0.44265689
0.44181504
0.44097534
0.44013796
0.43930358
0.43847211
0.43764216
0.43681454
0.43598912
0.43516598
0.43434660
0.43352884
0.43271258
0.43189935
0.43108844
0.43028129
0.42947574
0.42867180
0.42787163
0.42707309
0.42627762
0.42548378
0.42469366
0.42390456
0.42311855
0.42233625
0.42155501
0.42077609
0.42000105
0.41922764
0.41845734
0.41768884
0.41692270
0.41616037
0.41539986
0.41464241
0.41388674
0.41313353
0.41238346
0.41163587
0.41089142
0.41014813
0.40940933
0.40867170
0.40793724
0.40720523
0.40647646
0.40574891
0.40502578
0.40430396
0.40358533
0.40286919
0.40215626
0.40144467
0.40073751
0.40003236
0.39932909
0.39862968
0.39793224
0.39723810
0.39654651
0.39585691
0.39517118
0.39448684
0.39380639
0.39312857
0.39245279
0.39178084
0.39111160
0.39044443
0.38977995
0.38911868
0.38846017
0.38780436
0.38715119
0.38650139
0.38585424
0.38520929
0.38456761
0.38392924
0.38329303
0.38265964
0.38202952
0.38140216
0.38077758
0.38015634
0.37953732
0.37892110
0.37830824
0.37769818
0.37709093
0.37648705
0.37588599
0.37528717
0.37469124
0.37409870
0.37350950
0.37292267
0.37233924
0.37175863
0.37118089
0.37060610
0.37003415
0.36946561
0.36889952
0.36833681
0.36777701
0.36722019
0.36666676
0.36611577
0.36556822
0.36502363
0.36448200
0.36394333
0.36340764
0.36287537
0.36234565
0.36181942
0.36129618
0.36077685
0.36025963
0.35974539
0.35923470
0.35872699
0.35822238
0.35772076
0.35722225
0.35672767
0.35623570
0.35574685
0.35526103
0.35477831
0.35429913
0.35382305
0.35335008
0.35287980
0.35241307
0.35195033
0.35148987
0.35103298
0.35057882
0.35012862
0.34968120
0.34923737
0.34879667
0.34835920
0.34792453
0.34749381
0.34706594
0.34664163
0.34622055
0.34580273
0.34538773
0.34497672
0.34456863
0.34416446
0.34376289
0.34336455
0.34297022
0.34257881
0.34219140
0.34180658
0.34142506
0.34104752
0.34067267
0.34030177
0.33993390
0.33957000
0.33920881
0.33885163
0.33849717
0.33814668
0.33779928
0.33745587
0.33711521
0.33677860
0.33644536
0.33611492
0.33578880
0.33546553
0.33514597
0.33483013
0.33451715
0.33420821
0.33390244
0.33360069
0.33330214
0.33300707
0.33271548
0.33242789
0.33214304
0.33186248
0.33158515
0.33131137
0.33104112
0.33077463
0.33051192
0.33025230
0.32999648
0.32974444
0.32949596
0.32925063
0.32900932
0.32877182
0.32853770
0.32830700
0.32808036
0.32785730
0.32763786
0.32742226
0.32721010
0.32700140
0.32679674
0.32659573
0.32639841
0.32620476
0.32601496
0.32582870
0.32564630
0.32546760
0.32529247
0.32512120
0.32495369
0.32479004
0.32463016
0.32447400
0.32432161
0.32417298
0.32402814
0.32388720
0.32374992
0.32361656
0.32348700
0.32336125
0.32323943
0.32312133
0.32300716
0.32289683
0.32279034
0.32268771
0.32258903
0.32249421
0.32240326
0.32231612
0.32223295
0.32215368
0.32207838
0.32200693
0.32193952
0.32187597
0.32181636
0.32176068
0.32170896
0.32166120
0.32161749
0.32157770
0.32154189
0.32151006
0.32148224
0.32145845
0.32143864
0.32142285
0.32141109
0.32140337
0.32139968
0.32140004
0.32140444
0.32141291
0.32142544
0.32144204
0.32146273
0.32148751
0.32151635
0.32154931
0.32158638
0.32162754
0.32167286
0.32172232
0.32177583
0.32183359
0.32189540
0.32196143
0.32203163
0.32210588
0.32218446
0.32226709
0.32235399
0.32244501
0.32254034
0.32263981
0.32274351
0.32285135
0.32296363
0.32307998
0.32320068
0.32332544
0.32345470
0.32358801
0.32372585
0.32386776
0.32401409
0.32416447
0.32431931
0.32447849
0.32464200
0.32480985
0.32498191
0.32515818
0.32533912
0.32552429
0.32571368
0.32590763
0.32610579
0.32630836
0.32651534
0.32672677
0.32694241
0.32716290
0.32738723
0.32761619
