corrn_curve_quadratic
1.47717170
1.47668938
1.47620599
1.47572285
1.47523863
1.47475470
1.47427032
1.47378556
1.47330036
1.47281475
1.47232943
1.47184302
1.47135688
1.47086962
1.47038265
1.46989527
1.46940749
1.46891929
1.46843135
1.46794233
1.46745361
1.46696377
1.46647490
1.46598492
1.46549456
1.46500375
1.46451254
1.46402163
1.46352963
1.46303790
1.46254576
1.46205322
1.46156027
1.46106690
1.46057381
1.46007964
1.45958577
1.45909149
1.45859609
1.45810096
1.45760547
1.45711025
1.45661390
1.45611718
1.45562074
1.45512390
1.45462665
1.45412826
1.45363093
1.45313246
1.45263358
1.45213503
1.45163534
1.45113594
1.45063617
1.45013599
1.44963538
1.44913439
1.44863297
1.44813117
1.44763040
1.44712776
1.44662545
1.44612274
1.44561892
1.44511613
1.44461221
1.44410862
1.44360388
1.44309945
1.44259465
1.44208944
1.44158380
1.44107779
1.44057138
1.44006527
1.43955801
1.43905114
1.43854382
1.43803611
1.43752728
1.43701947
1.43651059
1.43600126
1.43549154
1.43498216
1.43447310
1.43396217
1.43345159
1.43294061
1.43242919
1.43191813
1.43140595
1.43089408
1.43038186
1.42986882
1.42935575
1.42884267
1.42832847
1.42781496
1.42730068
1.42678638
1.42627092
1.42575583
1.42524029
1.42472402
1.42420811
1.42369176
1.42317543
1.42265829
1.42214041
1.42162285
1.42110493
1.42058697
1.42006822
1.41954908
1.41902992
1.41851040
1.41799080
1.41747083
1.41695048
1.41642895
1.41590819
1.41538664
1.41486505
1.41434348
1.41382109
1.41329874
1.41277595
1.41225281
1.41172923
1.41120564
1.41068127
1.41015655
1.40963178
1.40910701
1.40858145
1.40805589
1.40752994
1.40700398
1.40647720
1.40595045
1.40542406
1.40489653
1.40436896
1.40384103
1.40331268
1.40278397
1.40225483
1.40172569
1.40119620
1.40066627
1.40013596
1.39960564
1.39907533
1.39854459
1.39801311
1.39748123
1.39694935
1.39641709
1.39588519
1.39535214
1.39481906
1.39428563
1.39375177
1.39321832
1.39268372
1.39214909
1.39161407
1.39107870
1.39054365
1.39000786
1.38947169
1.38893592
1.38839896
1.38786202
1.38732468
1.38678732
1.38624961
1.38571112
1.38517299
1.38463408
1.38409522
1.38355634
1.38301626
1.38247701
1.38193660
1.38139577
1.38085536
1.38031415
1.37977256
1.37923140
1.37868903
1.37814746
1.37760432
1.37706202
1.37651888
1.37597581
1.37543153
1.37488806
1.37434338
1.37379913
1.37325413
1.37270952
1.37216371
1.37161833
1.37107175
1.37052602
1.36997908
1.36943257
1.36888486
1.36833800
1.36779031
1.36724186
1.36669385
1.36614501
1.36559623
1.36504744
1.36449749
1.36394794
1.36339842
1.36284769
1.36229740
1.36174674
1.36119490
1.36064389
1.36009208
1.35953988
1.35898768
1.35843514
1.35788264
1.35732892
1.35677561
1.35622196
1.35566831
1.35511348
1.35455907
1.35400428
1.35344910
1.35289317
1.35233766
1.35178177
1.35122549
1.35066926
1.35011223
1.34955482
1.34899745
1.34843970
1.34788195
1.34732387
1.34676536
1.34620652
1.34564726
1.34508808
1.34452768
1.34396771
1.34340778
1.34284706
1.34228642
1.34172536
1.34116435
1.34060253
1.34004077
1.33947858
1.33891606
1.33835317
1.33779032
1.33722667
1.33666303
1.33609949
1.33553510
1.33497080
1.33440608
1.33384103
1.33327557
1.33271058
1.33214479
1.33157863
1.33101209
1.33044561
1.32987875
1.32931109
1.32874348
1.32817636
1.32760844
1.32704010
1.32647143
1.32590238
1.32533292
1.32476438
1.32419422
1.32362450
1.32305402
1.32248313
1.32191316
1.32134196
1.32077042
1.32019847
1.31962702
1.31905475
1.31848212
1.31790994
1.31733700
1.31676325
1.31619040
1.31561635
1.31504231
1.31446839
1.31389362
1.31331852
1.31274344
1.31216799
1.31159221
1.31101646
1.31043990
1.30986385
1.30928700
1.30870932
1.30813261
1.30755464
1.30697714
1.30639887
1.30582068
1.30524167
1.30466270
1.30408384
1.30350413
1.30292453
1.30234408
1.30176415
1.30118345
1.30060278
1.30002219
1.29944034
1.29885902
1.29827688
1.29769482
1.29711240
1.29653005
1.29594729
1.29536332
1.29478032
1.29419605
1.29361228
1.29302858
1.29244322
1.29185879
1.29127400
1.29068799
1.29010291
1.28951702
1.28893036
1.28834419
1.28775806
1.28717031
1.28658349
1.28599627
1.28540873
1.28482037
1.28423209
1.28364387
1.28305532
1.28246550
1.28187663
1.28128695
1.28069740
1.28010744
1.27951621
1.27892603
1.27833498
1.27774402
1.27715270
1.27656148
1.27596898
1.27537657
1.27478426
1.27419154
1.27359896
1.27300556
1.27241221
1.27181855
1.27122447
1.27063054
1.27003529
1.26944064
1.26884558
1.26825016
1.26765442
1.26705874
1.26646270
1.26586629
1.26526953
1.26467287
1.26407585
1.26347846
1.26288067
1.26228257
1.26168457
1.26108663
1.26048838
1.25988925
1.25928981
1.25869044
1.25809074
1.25749065
1.25689019
1.25628984
1.25568918
1.25508858
1.25448716
1.25388585
1.25328370
1.25268167
1.25207928
1.25147743
1.25087479
1.25027133
1.24966793
1.24906422
1.24846105
1.24785709
1.24725227
1.24664760
1.24604347
1.24543804
1.24483273
1.24422706
1.24362151
1.24301560
1.24240891
1.24180271
1.24119574
1.24058840
1.23998166
1.23937404
1.23876565
1.23815831
1.23754963
1.23694064
1.23633220
1.23572297
1.23511430
1.23450432
1.23389403
1.23328429
1.23267372
1.23206375
1.23145248
1.23084180
1.23023030
1.22961892
1.22900670
1.22839509
1.22778261
1.22717029
1.22655714
1.22594456
1.22533071
1.22471741
1.22410334
1.22348934
1.22287456
1.22226034
1.22164625
1.22103036
1.22041557
1.21979946
1.21918397
1.21856861
1.21795145
1.21733538
1.21671800
1.21610119
1.21548456
1.21486661
1.21424874
1.21363106
1.21301250
1.21239412
1.21177534
1.21115670
1.21053727
1.20991793
1.20929823
1.20867771
1.20805781
1.20743755
1.20681696
1.20619601
1.20557422
1.20495306
1.20433156
1.20371015
1.20308795
1.20246491
1.20184245
1.20121970
1.20059654
1.19997354
1.19934974
1.19872554
1.19810149
1.19747715
1.19685289
1.19622780
1.19560286
1.19497757
1.19435242
1.19372644
1.19310055
1.19247437
1.19184784
1.19122141
1.19059369
1.18996662
1.18933915
1.18871139
1.18808323
1.18745527
1.18682742
1.18619872
1.18556968
1.18494079
1.18431156
1.18368153
1.18305206
1.18242179
1.18179118
1.18116073
1.18052993
1.17989878
1.17926729
1.17863641
1.17800474
1.17737267
1.17674031
1.17610806
1.17547501
1.17484207
1.17420929
1.17357572
1.17294225
1.17230794
1.17167379
1.17104031
1.17040548
1.16977030
1.16913529
1.16850039
1.16786469
1.16722916
1.16659278
1.16595701
1.16532046
1.16468356
1.16404728
1.16340965
1.16277224
1.16213494
1.16149679
1.16085887
1.16022100
1.15958189
1.15894289
1.15830457
1.15766489
1.15702589
1.15638604
1.15574580
1.15510578
1.15446542
1.15382519
1.15318415
1.15254329
1.15190152
1.15125998
1.15061857
1.14997584
1.14933425
1.14869131
1.14804905
1.14740548
1.14676301
1.14611928
1.14547567
1.14483219
1.14418791
1.14354380
1.14289884
1.14225458
1.14160895
1.14096396
1.14031915
1.13967303
1.13902708
1.13838074
1.13773464
1.13708815
1.13644081
1.13579417
1.13514724
1.13449941
1.13385176
1.13320429
1.13255545
1.13190732
1.13125885
1.13061004
1.12996038
1.12931138
1.12866209
1.12801241
1.12736193
1.12671216
1.12606201
1.12541152
1.12476075
1.12410907
1.12345763
1.12280633
1.12215469
1.12150272
1.12084990
1.12019779
1.11954482
1.11889204
1.11823946
1.11758602
1.11693272
1.11627861
1.11562417
1.11496993
1.11431535
1.11366092
1.11300615
1.11235110
1.11169567
1.11104044
1.11038440
1.10972850
1.10907228
1.10841572
1.10775936
1.10710219
1.10644512
1.10578777
1.10513008
1.10447260
1.10381426
1.10315612
1.10249759
1.10183879
1.10118019
1.10052174
1.09986242
1.09920284
1.09854286
1.09788261
1.09722252
1.09656209
1.09590139
1.09524084
1.09457996
1.09391822
1.09325668
1.09259482
1.09193263
1.09127118
1.09060881
1.08994617
1.08928320
1.08862093
1.08795730
1.08729384
1.08662955
1.08596651
1.08530211
1.08463733
1.08397282
1.08330847
1.08264325
1.08197824
1.08131291
1.08064725
1.07998126
1.07931549
1.07864885
1.07798243
1.07731622
1.07664915
1.07598174
1.07531451
1.07464700
1.07397965
1.07331149
1.07264349
1.07197468
1.07130603
1.07063761
1.06996782
1.06929929
1.06862934
1.06796016
1.06728957
1.06662029
1.06594959
1.06527911
1.06460831
1.06393774
1.06326574
1.06259501
1.06192292
1.06125160
1.06057990
1.05990683
1.05923504
1.05856187
1.05788943
1.05721667
1.05654254
1.05586968
1.05519540
1.05452189
1.05384807
1.05317287
1.05249890
1.05182411
1.05114900
1.05047412
1.04979891
1.04912284
1.04844699
1.04777132
1.04709539
1.04641802
1.04574195
1.04506499
1.04438833
1.04371018
1.04303338
1.04235575
1.04167775
1.04099999
1.04032079
1.03964295
1.03896422
1.03828518
1.03760638
1.03692725
1.03624669
1.03556749
1.03488735
1.03420750
1.03352734
1.03284681
1.03216601
1.03148483
1.03080396
1.03012158
1.02944007
1.02875875
1.02807654
1.02739458
1.02671179
1.02602919
1.02534684
1.02466361
1.02398056
1.02329675
1.02261307
1.02192913
1.02124544
1.02056086
1.01987648
1.01919184
1.01850687
1.01782267
1.01713702
1.01645168
1.01576596
1.01507998
1.01439363
1.01370754
1.01302061
1.01233388
1.01164791
1.01096061
1.01027344
1.00958551
1.00889777
1.00820965
1.00752242
1.00683374
1.00614531
1.00545651
1.00476745
1.00407859
1.00338947
1.00269941
1.00200966
1.00132012
1.00062974
0.99993957
0.99924965
0.99855885
0.99786716
0.99717631
0.99648514
0.99579366
0.99510186
0.99441033
0.99371791
0.99302632
0.99233328
0.99164043
0.99094791
0.99025450
0.98956072
0.98886784
0.98817401
0.98748045
0.98678605
0.98609244
0.98539743
0.98470319
0.98400807
0.98331264
0.98261747
0.98192199
0.98122678
0.98053010
0.97983485
0.97913813
0.97844226
0.97774602
0.97704836
0.97635214
0.97565439
0.97495696
0.97425923
0.97356171
0.97286388
0.97216522
0.97146735
0.97076801
0.97006958
0.96937079
0.96867110
0.96797227
0.96727313
0.96657252
0.96587276
0.96517329
0.96447233
0.96377217
0.96307177
0.96236989
0.96166945
0.96096807
0.96026702
0.95956443
0.95886276
0.95816132
0.95745898
0.95675580
0.95605344
0.95535077
0.95464785
0.95394515
0.95324096
0.95253765
0.95183404
0.95113011
0.95042588
0.94972187
0.94901703
0.94831188
0.94760701
0.94690184
0.94619690
0.94549111
0.94478556
0.94407975
0.94337358
0.94266771
0.94196099
0.94125450
0.94054770
0.93984066
0.93913385
0.93842554
0.93771812
0.93701040
0.93630296
0.93559463
0.93488658
0.93417818
0.93346953
0.93276057
0.93205131
0.93134169
0.93063242
0.92992285
0.92921291
0.92850273
0.92779219
0.92708194
0.92637205
0.92566119
0.92495003
0.92423857
0.92352741
0.92281600
0.92210363
0.92139271
0.92068033
0.91996826
0.91925528
0.91854260
0.91783022
0.91711748
0.91640390
0.91569061
0.91497757
0.91426368
0.91354943
0.91283494
0.91212130
0.91140675
0.91069196
0.90997742
0.90926197
0.90854682
0.90783198
0.90711623
0.90639964
0.90568444
0.90496785
0.90425145
0.90353541
0.90281847
0.90210238
0.90138484
0.90066700
0.89995007
0.89923218
0.89851520
0.89779677
0.89707920
0.89636017
0.89564138
0.89492353
0.89420421
0.89348514
0.89276577
0.89204672
0.89132676
0.89060711
0.88988716
0.88916753
0.88844760
0.88772615
0.88700617
0.88628473
0.88556423
0.88484219
0.88412164
0.88340018
0.88267787
0.88195643
0.88123476
0.88051149
0.87978978
0.87906660
0.87834367
0.87762107
0.87689755
0.87617435
0.87545086
0.87472769
0.87400299
0.87327923
0.87255517
0.87183019
0.87110554
0.87038116
0.86965653
0.86893100
0.86820572
0.86748022
0.86675497
0.86602943
0.86530242
0.86457629
0.86384993
0.86312383
0.86239744
0.86167076
0.86094260
0.86021532
0.85948832
0.85876052
0.85803292
0.85730509
0.85657698
0.85584919
0.85512048
0.85439204
0.85366212
0.85293316
0.85220447
0.85147492
0.85074564
0.85001550
0.84928564
0.84855611
0.84782572
0.84709498
0.84636457
0.84563387
0.84490294
0.84417166
0.84344071
0.84270884
0.84197851
0.84124668
0.84051457
0.83978216
0.83905010
0.83831704
0.83758439
0.83685145
0.83611879
0.83538526
0.83465265
0.83391917
0.83318534
0.83245123
0.83171688
0.83098281
0.83024909
0.82951444
0.82877950
0.82804434
0.82731002
0.82657485
0.82583881
0.82510299
0.82436822
0.82363189
0.82289590
0.82215899
0.82142363
0.82068678
0.81994957
0.81921341
0.81847626
0.81773825
0.81700180
0.81626378
0.81552554
0.81478823
0.81404998
0.81331145
0.81257334
0.81183423
0.81109612
0.81035707
0.80961710
0.80887870
0.80813879
0.80739988
0.80665940
0.80591991
0.80517943
0.80444001
0.80369902
0.80295897
0.80221740
0.80147677
0.80073528
0.79999472
0.79925258
0.79851145
0.79776946
0.79702775
0.79628512
0.79554284
0.79480028
0.79405808
0.79331559
0.79257217
0.79182911
0.79108642
0.79034214
0.78959881
0.78885461
0.78811077
0.78736723
0.78662217
0.78587807
0.78513374
0.78438841
0.78364416
0.78289891
0.78215403
0.78140828
0.78066283
0.77991710
0.77917173
0.77842477
0.77767884
0.77693262
0.77618612
0.77543868
0.77469226
0.77394550
0.77319851
0.77245125
0.77170304
0.77095515
0.77020768
0.76945987
0.76871185
0.76796347
0.76721488
0.76646659
0.76571678
0.76496793
0.76421880
0.76346938
0.76272034
0.76197036
0.76122076
0.76047087
0.75972071
0.75897026
0.75822018
0.75746983
0.75671854
0.75596821
0.75521702
0.75446554
0.75371437
0.75296233
0.75221067
0.75145866
0.75070703
0.74995453
0.74920234
0.74844927
0.74769652
0.74694415
0.74619151
0.74543858
0.74468471
0.74393129
0.74317752
0.74242407
0.74166974
0.74091646
0.74016224
0.73940774
0.73865289
0.73789783
0.73714249
0.73638813
0.73563290
0.73487739
0.73412154
0.73336673
0.73261039
0.73185436
0.73109812
0.73034221
0.72958602
0.72882888
0.72807280
0.72731577
0.72655780
0.72580028
0.72504369
0.72428622
0.72352781
0.72277046
0.72201215
0.72125485
0.72049599
0.71973686
0.71897940
0.71821971
0.71746170
0.71670213
0.71594221
0.71518337
0.71442364
0.71366424
0.71290390
0.71214462
0.71138379
0.71062396
0.70986318
0.70910281
0.70834148
0.70758122
0.70681934
0.70605853
0.70529678
0.70453535
0.70377372
0.70301182
0.70225024
0.70148779
0.70072566
0.69996266
0.69920066
0.69843779
0.69767457
0.69691175
0.69614805
0.69538468
0.69462172
0.69385720
0.69309369
0.69232991
0.69156517
0.69080152
0.69003692
0.68927266
0.68850751
0.68774277
0.68697775
0.68621178
0.68544683
0.68468168
0.68391619
0.68315049
0.68238384
0.68161821
0.68085169
0.68008552
0.67931908
0.67855174
0.67778475
0.67701818
0.67625133
0.67548421
0.67471681
0.67394853
0.67318060
0.67241300
0.67164459
0.67087646
0.67010881
0.66934020
0.66857133
0.66780279
0.66703406
0.66626499
0.66549571
0.66472617
0.66395697
0.66318689
0.66241715
0.66164714
0.66087693
0.66010708
0.65933626
0.65856586
0.65779519
0.65702426
0.65625312
0.65548226
0.65471059
0.65393919
0.65316760
0.65239573
0.65162360
0.65085120
0.65007984
0.64930760
0.64853508
0.64776223
0.64698917
0.64621654
0.64544427
0.64467104
0.64389760
0.64312383
0.64234979
0.64157687
0.64080306
0.64002822
0.63925380
0.63847912
0.63770556
0.63693104
0.63615555
0.63538119
0.63460586
0.63383097
0.63305511
0.63228031
0.63150392
0.63072795
0.62995305
0.62917656
0.62839972
0.62762409
0.62684742
0.62607119
0.62529406
0.62451660
0.62374027
0.62296304
0.62218618
0.62140835
0.62063025
0.61985259
0.61907467
0.61829718
0.61751802
0.61674071
0.61596172
0.61518317
0.61440429
0.61362592
0.61284587
0.61206760
0.61128772
0.61050829
0.60972852
0.60894920
0.60816826
0.60738911
0.60660906
0.60582797
0.60504803
0.60426712
0.60348672
0.60270598
0.60192428
0.60114373
0.60036149
0.59958041
0.59879907
0.59801675
0.59723552
0.59645410
0.59567170
0.59488904
0.59410676
0.59332428
0.59254155
0.59175847
0.59097592
0.59019304
0.58940925
0.58862584
0.58784288
0.58705894
0.58627481
0.58549107
0.58470706
0.58392279
0.58313897
0.58235417
0.58156912
0.58078451
0.57999965
0.57921452
0.57842985
0.57764492
0.57685893
0.57607276
0.57528705
0.57450171
0.57371547
0.57292969
0.57214358
0.57135720
0.57057064
0.56978374
0.56899730
0.56820995
0.56742299
0.56663578
0.56584837
0.56506135
0.56427335
0.56348581
0.56269801
0.56190995
0.56112163
0.56033305
0.55954486
0.55875577
0.55796713
0.55717824
0.55639046
0.55560104
0.55481130
0.55402209
0.55323255
0.55244283
0.55165277
0.55086253
0.55007340
0.54928330
0.54849300
0.54770238
0.54691150
0.54612108
0.54533041
0.54453948
0.54374756
0.54295612
0.54216586
0.54137390
0.54058241
0.53978993
0.53899858
0.53820631
0.53741452
0.53662240
0.53583009
0.53503680
0.53424463
0.53345155
0.53265887
0.53186593
0.53107282
0.53027864
0.52948566
0.52869178
0.52789894
0.52710454
0.52630982
0.52551629
0.52472178
0.52392848
0.52313345
0.52233818
0.52154403
0.52074832
0.51995366
0.51915810
0.51836367
0.51756759
0.51677272
0.51597613
0.51518069
0.51438432
0.51358910
0.51279215
0.51199649
0.51120050
0.51040279
0.50960703
0.50880962
0.50801262
0.50721610
0.50641785
0.50562082
0.50482280
0.50402600
0.50322821
0.50243017
0.50163187
0.50083473
0.50003518
0.49923760
0.49843896
0.49764014
0.49684106
0.49604239
0.49524421
0.49444438
0.49364503
0.49284609
0.49204691
0.49124606
0.49044637
0.48964716
0.48884697
0.48804585
0.48724604
0.48644583
0.48564537
0.48484539
0.48404443
0.48324247
0.48244174
0.48164069
0.48083946
0.48003798
0.47923692
0.47843494
0.47763345
0.47683164
0.47602890
0.47522659
0.47442409
0.47362202
0.47281977
0.47201720
0.47121438
0.47041131
0.46960806
0.46880523
0.46800141
0.46719808
0.46639450
0.46559068
0.46478735
0.46398302
0.46317920
0.46237512
0.46157072
0.46076615
0.45996207
0.45915767
0.45835310
0.45754753
0.45674238
0.45593706
0.45513217
0.45432635
0.45352171
0.45271607
0.45191026
0.45110413
0.45029774
0.44949119
0.44868581
0.44787943
0.44707281
0.44626594
0.44545882
0.44465296
0.44384534
0.44303823
0.44223088
0.44142395
0.44061610
0.43980875
0.43900109
0.43819325
0.43738516
0.43657751
0.43576893
0.43496003
0.43415239
0.43334383
0.43253494
0.43172657
0.43091727
0.43010764
0.42929929
0.42848924
0.42768040
0.42687054
0.42606044
0.42525162
0.42444103
0.42363164
0.42282131
0.42201150
0.42120069
0.42039039
0.41957977
0.41876974
0.41795795
0.41714735
0.41633583
0.41552551
0.41471349
0.41390268
0.41309017
0.41227887
0.41146664
0.41065561
0.40984358
0.40903130
0.40821878
0.40740609
0.40659384
0.40578204
0.40496861
0.40415563
0.40334310
0.40252963
0.40171669
0.40090350
0.40009007
0.39927632
0.39846317
0.39764824
0.39683529
0.39602141
