corrn_curve_quartic
0.61758959
0.62285247
0.62810158
0.63332254
0.63852975
0.64370857
0.64886695
0.65400419
0.65912107
0.66421725
0.66928544
0.67434002
0.67936710
0.68438095
0.68936707
0.69433280
0.69927815
0.70420317
0.70910116
0.71398567
0.71884292
0.72368707
0.72849746
0.73329481
0.73807181
0.74282919
0.74756664
0.75227735
0.75697473
0.76164585
0.76629725
0.77092896
0.77554102
0.78013347
0.78470003
0.78925339
0.79378067
0.79828854
0.80278357
0.80725303
0.81170287
0.81612734
0.82053905
0.82493125
0.82929826
0.83364621
0.83797514
0.84229136
0.84657609
0.85084817
0.85510138
0.85932958
0.86354518
0.86773620
0.87190824
0.87606164
0.88019674
0.88431297
0.88841097
0.89249017
0.89653938
0.90058204
0.90460046
0.90860057
0.91258794
0.91654575
0.92049118
0.92441273
0.92832191
0.93220760
0.93607502
0.93992448
0.94375629
0.94756992
0.95136570
0.95513842
0.95889890
0.96263588
0.96635547
0.97005743
0.97374692
0.97740860
0.98105762
0.98468941
0.98830375
0.99189541
0.99546475
0.99902701
1.00256677
1.00608929
1.00959488
1.01307819
1.01654926
1.01999843
1.02343033
1.02684802
1.03024625
1.03362509
1.03699178
1.04033448
1.04366287
1.04697208
1.05026945
1.05354530
1.05680477
1.06004980
1.06327351
1.06648097
1.06966938
1.07284396
1.07600424
1.07914375
1.08226672
1.08537137
1.08846209
1.09153660
1.09459269
1.09763245
1.10065435
1.10366001
1.10664968
1.10962778
1.11258337
1.11552526
1.11844936
1.12135530
1.12424785
1.12712232
1.12998134
1.13282449
1.13565224
1.13846234
1.14125898
1.14403989
1.14680349
1.14954964
1.15228243
1.15499785
1.15769797
1.16038083
1.16305064
1.16570308
1.16833666
1.17095885
1.17356421
1.17615434
1.17872966
1.18128981
1.18383522
1.18636384
1.18887742
1.19137637
1.19386052
1.19632808
1.19877912
1.20121569
1.20363925
1.20604820
1.20844080
1.21081887
1.21317912
1.21552825
1.21786139
1.22017998
1.22248439
1.22477109
1.22704675
1.22930664
1.23155233
1.23378368
1.23599793
1.23819958
1.24038717
1.24255751
1.24471710
1.24686112
1.24899124
1.25110605
1.25320688
1.25529545
1.25736731
1.25942697
1.26147125
1.26350051
1.26551916
1.26751972
1.26950956
1.27148601
1.27344604
1.27539407
1.27732868
1.27924703
1.28115489
1.28304532
1.28492657
1.28679036
1.28864249
1.29047993
1.29230696
1.29411693
1.29591654
1.29770043
1.29947251
1.30122912
1.30297542
1.30470621
1.30642672
1.30813054
1.30982411
1.31150239
1.31317044
1.31482206
1.31646239
1.31809119
1.31970495
1.32130747
1.32289615
1.32447127
1.32603616
1.32758640
1.32912309
1.33064973
1.33216174
1.33366148
1.33515108
1.33662520
1.33808825
1.33953913
1.34097689
1.34240245
1.34381489
1.34521741
1.34660592
1.34798237
1.34934596
1.35069959
1.35203941
1.35336741
1.35468359
1.35598889
1.35728057
1.35856056
1.35982887
1.36108459
1.36232964
1.36356311
1.36478409
1.36599356
1.36719073
1.36837637
1.36955068
1.37071351
1.37186506
1.37300434
1.37413403
1.37525083
1.37635556
1.37744993
1.37853221
1.37960345
1.38066278
1.38171184
1.38274906
1.38377535
1.38479058
1.38579485
1.38678745
1.38776990
1.38874083
1.38970012
1.39064942
1.39158716
1.39251423
1.39343053
1.39433622
1.39522991
1.39611367
1.39698684
1.39784946
1.39870090
1.39954186
1.40037298
1.40119303
1.40200145
1.40280012
1.40358851
1.40436653
1.40513426
1.40589178
1.40663738
1.40737443
1.40810025
1.40881644
1.40952256
1.41021702
1.41090249
1.41157789
1.41224335
1.41289784
1.41354291
1.41417808
1.41480247
1.41541745
1.41602308
1.41661761
1.41720324
1.41777875
1.41834410
1.41890025
1.41944672
1.41998320
1.42051011
1.42102742
1.42153486
1.42203320
1.42252131
1.42300037
1.42347036
1.42392992
1.42438082
1.42482175
1.42525369
1.42567604
1.42608946
1.42649340
1.42688781
1.42727341
1.42764955
1.42801691
1.42837464
1.42872358
1.42906326
1.42939371
1.42971571
1.43002828
1.43033218
1.43062698
1.43091293
1.43118985
1.43145801
1.43171777
1.43196821
1.43221031
1.43244338
1.43266763
1.43288374
1.43309076
1.43328922
1.43347941
1.43366067
1.43383357
1.43399812
1.43415398
1.43430134
1.43444062
1.43457123
1.43469352
1.43480750
1.43491329
1.43501074
1.43509990
1.43518086
1.43525375
1.43531834
1.43537486
1.43542324
1.43546357
1.43549589
1.43552012
1.43553639
1.43554468
1.43554503
1.43553748
1.43552203
1.43549871
1.43546759
1.43542865
1.43538197
1.43532750
1.43526533
1.43519546
1.43511791
1.43503278
1.43493986
1.43483949
1.43473154
1.43461603
1.43449299
1.43436255
1.43422462
1.43407924
1.43392643
1.43376634
1.43359888
1.43342406
1.43324190
1.43305245
1.43285587
1.43265218
1.43244129
1.43222302
1.43199757
1.43176514
1.43152559
1.43127891
1.43102515
1.43076453
1.43049691
1.43022247
1.42994083
1.42965246
1.42935692
1.42905470
1.42874559
1.42843008
1.42810753
1.42777790
1.42744171
1.42709878
1.42674962
1.42639350
1.42603038
1.42566090
1.42528532
1.42490254
1.42451345
1.42411778
1.42371588
1.42330745
1.42289223
1.42247111
1.42204324
1.42160893
1.42116889
1.42072210
1.42026861
1.41980985
1.41934403
1.41887193
1.41839427
1.41791003
1.41742028
1.41692357
1.41642071
1.41591244
1.41539764
1.41487753
1.41435053
1.41381829
1.41327958
1.41273529
1.41218456
1.41162873
1.41106646
1.41049876
1.40992469
1.40934561
1.40875979
1.40816901
1.40757199
1.40696959
1.40636100
1.40574756
1.40512888
1.40450303
1.40387297
1.40323626
1.40259490
1.40194844
1.40129485
1.40063723
1.39997301
1.39930426
1.39863058
1.39795035
1.39726513
1.39657507
1.39587898
1.39517810
1.39447178
1.39376066
1.39304370
1.39232193
1.39159487
1.39086196
1.39012495
1.38938272
1.38863528
1.38788265
1.38712426
1.38636191
1.38559445
1.38482243
1.38404478
1.38326145
1.38247426
1.38168210
1.38088489
1.38008333
1.37927624
1.37846415
1.37764779
1.37682659
1.37600110
1.37517011
1.37433494
1.37349496
1.37265085
1.37180131
1.37094761
1.37008926
1.36922619
1.36835905
1.36748593
1.36660953
1.36572844
1.36484280
1.36395251
1.36305842
1.36216042
1.36125718
1.36034944
1.35943792
1.35852193
1.35760084
1.35667663
1.35574735
1.35481368
1.35387637
1.35293471
1.35198872
1.35103841
1.35008525
1.34912713
1.34816468
1.34719808
1.34622795
1.34525292
1.34427442
1.34329254
1.34230581
1.34131568
1.34032065
1.33932233
1.33832154
1.33731512
1.33630467
1.33529102
1.33427411
1.33325251
1.33222777
1.33119828
1.33016644
1.32912997
1.32808962
1.32704700
1.32599888
1.32494786
1.32389379
1.32283511
1.32177359
1.32070901
1.31963917
1.31856639
1.31749164
1.31641150
1.31532943
1.31424287
1.31315261
1.31205970
1.31096322
1.30986397
1.30876038
1.30765416
1.30654345
1.30543024
1.30431435
1.30319331
1.30207144
1.30094436
1.29981568
1.29868190
1.29754729
1.29640771
1.29526562
1.29412104
1.29297235
1.29182130
1.29066607
1.28950945
1.28834775
1.28718462
1.28601923
1.28484890
1.28367635
1.28250057
1.28132272
1.28014166
1.27895658
1.27777032
1.27658112
1.27538784
1.27419249
1.27299511
1.27179283
1.27058951
1.26938324
1.26817404
1.26696096
1.26574683
1.26452992
1.26331005
1.26208645
1.26086199
1.25963462
1.25840446
1.25717161
1.25593491
1.25469656
1.25345637
1.25221347
1.25096788
1.24971859
1.24846866
1.24721507
1.24595985
1.24470304
1.24344262
1.24218052
1.24091495
1.23964682
1.23837718
1.23710501
1.23583128
1.23455505
1.23327646
1.23199531
1.23071276
1.22942686
1.22813948
1.22684971
1.22555757
1.22426411
1.22296737
1.22166913
1.22036869
1.21906596
1.21776199
1.21645471
1.21514623
1.21383541
1.21252248
1.21120841
1.20989311
1.20857458
1.20725399
1.20593115
1.20460630
1.20328030
1.20195220
1.20062212
1.19929096
1.19795774
1.19662141
1.19528413
1.19394485
1.19260358
1.19126251
1.18991829
1.18857223
1.18722423
1.18587640
1.18452459
1.18317188
1.18181631
1.18046207
1.17910390
1.17774378
1.17638307
1.17502156
1.17365716
1.17229209
1.17092528
1.16955672
1.16818643
1.16681555
1.16544186
1.16406760
1.16269280
1.16131521
1.15993599
1.15855616
1.15717482
1.15579290
1.15440839
1.15302332
1.15163568
1.15024752
1.14885896
1.14746674
1.14607631
1.14468212
1.14328873
1.14189161
1.14049647
1.13909762
1.13769849
1.13629796
1.13489719
1.13349275
1.13209027
1.13068427
1.12927923
1.12787276
1.12646280
1.12505488
1.12364349
1.12223303
1.12082132
1.11940617
1.11799315
1.11657660
1.11516117
1.11374456
1.11232457
1.11090667
1.10948658
1.10806535
1.10664417
1.10522189
1.10379734
1.10237288
1.10094841
1.09952300
1.09809420
1.09666778
1.09523916
1.09381084
1.09237906
1.09094982
1.08951856
1.08808624
1.08665415
1.08521878
1.08378603
1.08235120
1.08091549
1.07948008
1.07804380
1.07660432
1.07516754
1.07372863
1.07229022
1.07085100
1.06941088
1.06797010
1.06652844
1.06508733
1.06364299
1.06220042
1.06075820
1.05931410
1.05787049
1.05642513
1.05498018
1.05353577
1.05208953
1.05064373
1.04919635
1.04774933
1.04630183
1.04485495
1.04340630
1.04195817
1.04050961
1.03906052
1.03761318
1.03616294
1.03471351
1.03326348
1.03181309
1.03036212
1.02891190
1.02746016
1.02600906
1.02455983
1.02310804
1.02165681
1.02020424
1.01875237
1.01730003
1.01584986
1.01439696
1.01294492
1.01149246
1.01003981
1.00858795
1.00713593
1.00568232
1.00422977
1.00277806
1.00132503
0.99987286
0.99842168
0.99696910
0.99551511
0.99406336
0.99261143
0.99115935
0.98970712
0.98825596
0.98680346
0.98535326
0.98390055
0.98244883
0.98099835
0.97954659
0.97809465
0.97664519
0.97519437
0.97374472
0.97229397
0.97084550
0.96939474
0.96794629
0.96649665
0.96504705
0.96359869
0.96215039
0.96070337
0.95925400
0.95780834
0.95636037
0.95491491
0.95346944
0.95202182
0.95057795
0.94913169
0.94768691
0.94624231
0.94479896
0.94335581
0.94191176
0.94047022
0.93902648
0.93758550
0.93614464
0.93470282
0.93326366
0.93182477
0.93038376
0.92894544
0.92750861
0.92606969
0.92463337
0.92319750
0.92175956
0.92032557
0.91889061
0.91745734
0.91602192
0.91458941
0.91315837
0.91172654
0.91029404
0.90886424
0.90743487
0.90600606
0.90457879
0.90314957
0.90172322
0.90029735
0.89887197
0.89744709
0.89602379
0.89459992
0.89317659
0.89175498
0.89033392
0.88891448
0.88749454
0.88607623
0.88465863
0.88324150
0.88182615
0.88041034
0.87899622
0.87758273
0.87616998
0.87475895
0.87334620
0.87193648
0.87052743
0.86912025
0.86771257
0.86630677
0.86490155
0.86349717
0.86209351
0.86069058
0.85928828
0.85788802
0.85648852
0.85508966
0.85369170
0.85229440
0.85089908
0.84950584
0.84811213
0.84671922
0.84532715
0.84393708
0.84254797
0.84115842
0.83977313
0.83838648
0.83700188
0.83561699
0.83423416
0.83285340
0.83147343
0.83009332
0.82871531
0.82733928
0.82596314
0.82458784
0.82321361
0.82184255
0.82047130
0.81910115
0.81773303
0.81636475
0.81499864
0.81363469
0.81227061
0.81090652
0.80954669
0.80818584
0.80682696
0.80547040
0.80411376
0.80276039
0.80140591
0.80005252
0.79870253
0.79735238
0.79600563
0.79465783
0.79331333
0.79196780
0.79062444
0.78928452
0.78794358
0.78660484
0.78526727
0.78393202
0.78259682
0.78126396
0.77993230
0.77860297
0.77727487
0.77594573
0.77462110
0.77329557
0.77197353
0.77065050
0.76933200
0.76801363
0.76669554
0.76538085
0.76406757
0.76275324
0.76144356
0.76013307
0.75882491
0.75751919
0.75621368
0.75491063
0.75360892
0.75230967
0.75100957
0.74971305
0.74841790
0.74712303
0.74583065
0.74454066
0.74325218
0.74196400
0.74067823
0.73939399
0.73811216
0.73683177
0.73555074
0.73427323
0.73299729
0.73172379
0.73045176
0.72918120
0.72791005
0.72664246
0.72537733
0.72411284
0.72285072
0.72159022
0.72033124
0.71907486
0.71781894
0.71656552
0.71531160
0.71406139
0.71281369
0.71156659
0.71032203
0.70907808
0.70783667
0.70659792
0.70535980
0.70412317
0.70288921
0.70165687
0.70042624
0.69919714
0.69797072
0.69674489
0.69552375
0.69430225
0.69308241
0.69186423
0.69064877
0.68943383
0.68822171
0.68701128
0.68580348
0.68459643
0.68339306
0.68219046
0.68098947
0.67979019
0.67859275
0.67739797
0.67620594
0.67501463
0.67382507
0.67263736
0.67145325
0.67026999
0.66908757
0.66790775
0.66673184
0.66555569
0.66438234
0.66320977
0.66204194
0.66087400
0.65970777
0.65854547
0.65738388
0.65622323
0.65506731
0.65391123
0.65275709
0.65160671
0.65045717
0.64930950
0.64816479
0.64702086
0.64588078
0.64474160
0.64360331
0.64246977
0.64133626
0.64020662
0.63907692
0.63795109
0.63682610
0.63570507
0.63458403
0.63346676
0.63234959
0.63123620
0.63012389
0.62901536
0.62790685
0.62680224
0.62569872
0.62459804
0.62349837
0.62240164
0.62130690
0.62021509
0.61912528
0.61803652
0.61695071
0.61586785
0.61478512
0.61370619
0.61262845
0.61155366
0.61048175
0.60941010
0.60834227
0.60727657
0.60621189
0.60515122
0.60409159
0.60303494
0.60197953
0.60092702
0.59987658
0.59882914
0.59778196
0.59673869
0.59569751
0.59465843
0.59362055
0.59258658
0.59155463
0.59052489
0.58949726
0.58847086
0.58744740
0.58642705
0.58540874
0.58439266
0.58337864
0.58236685
0.58135801
0.58034965
0.57934513
0.57834277
0.57734257
0.57634543
0.57534958
0.57435679
0.57336618
0.57237776
0.57139153
0.57040836
0.56942739
0.56844776
0.56747197
0.56649761
0.56552548
0.56455633
0.56358863
0.56262401
0.56166154
0.56070214
0.55974422
0.55878930
0.55783587
0.55688545
0.55593810
0.55499301
0.55405018
0.55310879
0.55217057
0.55123453
0.55030151
0.54937003
0.54844246
0.54751636
0.54659255
0.54567094
0.54475171
0.54383479
0.54292169
0.54201017
0.54110096
0.54019398
0.53929091
0.53838865
0.53748942
0.53659260
0.53569881
0.53480735
0.53391744
0.53303143
0.53214698
0.53126410
0.53038442
0.52950849
0.52863420
0.52776151
0.52689271
0.52602551
0.52516213
0.52429966
0.52343957
0.52258405
0.52172871
0.52087794
0.52002812
0.51918062
0.51833700
0.51749510
0.51665627
0.51581909
0.51498579
0.51415350
0.51332500
0.51249818
0.51167451
0.51085252
0.51003440
0.50921726
0.50840398
0.50759241
0.50678391
0.50597791
0.50517435
0.50437387
0.50357518
0.50277957
0.50198578
0.50119576
0.50040757
0.49962176
0.49883909
0.49805826
0.49728052
0.49650592
0.49573249
0.49496282
0.49419563
0.49343022
0.49266865
0.49190888
0.49115219
0.49039738
0.48964573
0.48889656
0.48814921
0.48740562
0.48666459
0.48592598
0.48518994
0.48445575
0.48372529
0.48299676
0.48227132
0.48154838
0.48082738
0.48010948
0.47939472
0.47868248
0.47797276
0.47726557
0.47656033
0.47585818
0.47515913
0.47446211
0.47376812
0.47307734
0.47238848
0.47170216
0.47101893
0.47033831
0.46966016
0.46898462
0.46831164
0.46764174
0.46697386
0.46630906
0.46564683
0.46498721
0.46433068
0.46367612
0.46302472
0.46237587
0.46172960
0.46108595
0.46044533
0.45980683
0.45917135
0.45853851
0.45790825
0.45728057
0.45665547
0.45603401
0.45541463
0.45479784
0.45418358
0.45357197
0.45296349
0.45235809
0.45175474
0.45115404
0.45055589
0.44996033
0.44936844
0.44877867
0.44819092
0.44760631
0.44702430
0.44644594
0.44586967
0.44529549
0.44472495
0.44415651
0.44359119
0.44302799
0.44246835
0.44191038
0.44135553
0.44080425
0.44025464
0.43970761
0.43916424
0.43862295
0.43808477
0.43754878
0.43701538
0.43648557
0.43595795
0.43543339
0.43491100
0.43439124
0.43387458
0.43336056
0.43284964
0.43234044
0.43183525
0.43133179
0.43083143
0.43033366
0.42983903
0.42934616
0.42885721
0.42837008
0.42788603
0.42740459
0.42692623
0.42644970
0.42597707
0.42550671
0.42503853
0.42457386
0.42411141
0.42365208
0.42319537
0.42274090
0.42228991
0.42184077
0.42139509
0.42095208
0.42051133
0.42007399
0.41963935
0.41920699
0.41877728
0.41835060
0.41792661
0.41750530
0.41708661
0.41667100
0.41625803
0.41584738
0.41543974
0.41503514
0.41463284
0.41423325
0.41383666
0.41344274
0.41305149
0.41266326
0.41227736
0.41189413
0.41151392
0.41113639
0.41076153
0.41038969
0.41002052
0.40965366
0.40928951
0.40892837
0.40857020
0.40821441
0.40786163
0.40751149
0.40716402
0.40681927
0.40647717
0.40613805
0.40580134
0.40546758
0.40513651
0.40480814
0.40448272
0.40415969
0.40383963
0.40352225
0.40320755
0.40289554
0.40258621
0.40227981
0.40197584
0.40167483
0.40137651
0.40108138
0.40078841
0.40049811
0.40021078
0.39992610
0.39964414
0.39936483
0.39908823
0.39881478
0.39854377
0.39827547
0.39800982
0.39774686
0.39748681
0.39722945
0.39697477
0.39672254
0.39647322
0.39622704
0.39598308
0.39574204
0.39550345
0.39526796
0.39503495
0.39480483
0.39457737
0.39435262
0.39413033
0.39391111
0.39369439
0.39348053
0.39326934
0.39306085
0.39285483
0.39265187
0.39245141
0.39225396
0.39205885
0.39186641
0.39167700
0.39149008
0.39130618
0.39112462
0.39094573
0.39076983
0.39059631
0.39042575
0.39025772
0.39009265
0.38992996
0.38977025
0.38961291
0.38945851
0.38930666
0.38915773
0.38901120
0.38886762
0.38872669
0.38858817
0.38845269
0.38831964
0.38818937
0.38806188
0.38793682
0.38781465
0.38769503
0.38757828
0.38746409
0.38735256
0.38724369
0.38713766
0.38703401
0.38693330
0.38683515
0.38673965
0.38664682
0.38655671
0.38646933
0.38638445
0.38630231
0.38622287
0.38614609
0.38607182
0.38600033
0.38593155
0.38586535
0.38580175
0.38574091
0.38568270
0.38562713
0.38557425
0.38552396
0.38547626
0.38543129
0.38538896
0.38534926
0.38531220
0.38527780
0.38524600
0.38521686
0.38519035
0.38516645
0.38514520
0.38512658
0.38511060
0.38509725
0.38508651
0.38507840
0.38507292
0.38507005
0.38506980
0.38507218
0.38507716
0.38508477
0.38509499
0.38510781
0.38512325
0.38514130
0.38516195
0.38518521
0.38521107
0.38523952
0.38527057
0.38530422
0.38534051
0.38537937
0.38542082
0.38546484
0.38551149
0.38556065
0.38561245
0.38566684
0.38572382
0.38578340
0.38584556
0.38591019
0.38597747
0.38604733
0.38611978
0.38619481
0.38627228
0.38635247
0.38643516
0.38652043
0.38660819
0.38669861
0.38679151
0.38688699
0.38698503
0.38708563
0.38718871
0.38729444
0.38740275
0.38751341
0.38762672
0.38774260
0.38786092
0.38798190
0.38810544
0.38823130
0.38835994
0.38849089
0.38862451
0.38876067
0.38889912
0.38904037
0.38918390
0.38933009
0.38947868
0.38962994
0.38978359
0.38993979
0.39009834
0.39025973
0.39042335
0.39058963
0.39075813
0.39092946
0.39110299
0.39127935
0.39145791
0.39163914
0.39182254
0.39200863
0.39219722
0.39238832
0.39258190
0.39277782
0.39297606
0.39317714
0.39338055
0.39358627
0.39379466
0.39400534
0.39421851
0.39443416
0.39465231
0.39487271
0.39509602
0.39532118
0.39554901
