corrn_curve_quadratic
1.38861388
1.38834936
1.38808379
1.38781790
1.38755097
1.38728375
1.38701583
1.38674725
1.38647797
1.38620802
1.38593778
1.38566649
1.38539489
1.38512223
1.38484928
1.38457565
1.38430135
1.38402637
1.38375110
1.38347477
1.38319817
1.38292049
1.38264292
1.38236427
1.38208497
1.38180498
1.38152431
1.38124337
1.38096137
1.38067909
1.38039614
1.38011251
1.37982821
1.37954324
1.37925799
1.37897168
1.37868511
1.37839787
1.37810954
1.37782093
1.37753168
1.37724216
1.37695154
1.37666028
1.37636875
1.37607655
1.37578368
1.37548972
1.37519594
1.37490107
1.37460552
1.37430975
1.37401287
1.37371573
1.37341795
1.37311951
1.37282037
1.37252059
1.37222012
1.37191901
1.37161809
1.37131562
1.37101293
1.37070957
1.37040513
1.37010089
1.36979554
1.36948997
1.36918329
1.36887637
1.36856882
1.36826060
1.36795169
1.36764214
1.36733193
1.36702150
1.36670994
1.36639820
1.36608578
1.36577269
1.36545851
1.36514454
1.36482949
1.36451376
1.36419737
1.36388079
1.36356399
1.36324562
1.36292705
1.36260783
1.36228793
1.36196783
1.36164663
1.36132523
1.36100318
1.36068022
1.36035684
1.36003304
1.35970813
1.35938326
1.35905749
1.35873130
1.35840398
1.35807648
1.35774831
1.35741926
1.35709004
1.35676014
1.35642985
1.35609864
1.35576656
1.35543429
1.35510139
1.35476805
1.35443382
1.35409894
1.35376364
1.35342772
1.35309135
1.35275435
1.35241670
1.35207790
1.35173919
1.35139958
1.35105955
1.35071915
1.35037781
1.35003611
1.34969373
1.34935072
1.34900704
1.34866297
1.34831799
1.34797238
1.34762636
1.34727995
1.34693263
1.34658492
1.34623656
1.34588781
1.34553813
1.34518809
1.34483789
1.34448656
1.34413481
1.34378244
1.34342940
1.34307575
1.34272141
1.34236670
1.34201137
1.34165536
1.34129872
1.34094169
1.34058428
1.34022620
1.33986724
1.33950764
1.33914766
1.33878704
1.33842628
1.33806437
1.33770206
1.33733914
1.33697554
1.33661185
1.33624700
1.33588175
1.33551586
1.33514936
1.33478270
1.33441517
1.33404699
1.33367872
1.33330926
1.33293944
1.33256897
1.33219812
1.33182666
1.33145428
1.33108179
1.33070838
1.33033464
1.32996052
1.32958520
1.32921008
1.32883379
1.32845684
1.32807981
1.32770186
1.32732328
1.32694463
1.32656478
1.32618511
1.32580398
1.32542308
1.32504122
1.32465905
1.32427567
1.32389248
1.32350809
1.32312364
1.32273829
1.32235286
1.32196622
1.32157953
1.32119162
1.32080395
1.32041507
1.32002614
1.31963599
1.31924609
1.31885524
1.31846349
1.31807170
1.31767895
1.31728589
1.31689248
1.31649787
1.31610319
1.31570818
1.31531195
1.31491568
1.31451879
1.31412070
1.31372284
1.31332406
1.31292465
1.31252489
1.31212453
1.31172384
1.31132192
1.31091994
1.31051738
1.31011445
1.30971033
1.30930615
1.30890135
1.30849593
1.30808960
1.30768323
1.30727624
1.30686862
1.30646068
1.30605181
1.30564232
1.30523251
1.30482208
1.30441131
1.30399994
1.30358792
1.30317530
1.30276204
1.30234849
1.30193370
1.30151887
1.30110375
1.30068768
1.30027134
1.29985435
1.29943705
1.29901881
1.29860028
1.29818109
1.29776131
1.29734091
1.29692021
1.29649857
1.29607660
1.29565437
1.29523116
1.29480768
1.29438356
1.29395885
1.29353349
1.29310816
1.29268188
1.29225499
1.29182749
1.29139969
1.29097127
1.29054191
1.29011226
1.28968265
1.28925210
1.28882090
1.28838911
1.28795671
1.28752366
1.28709099
1.28665675
1.28622251
1.28578737
1.28535158
1.28491617
1.28447948
1.28404222
1.28360430
1.28316644
1.28272764
1.28228822
1.28184882
1.28140852
1.28096726
1.28052637
1.28008423
1.27964178
1.27919909
1.27875541
1.27831117
1.27786661
1.27742145
1.27697571
1.27652966
1.27608267
1.27563575
1.27518788
1.27473906
1.27429066
1.27384096
1.27339131
1.27294074
1.27248990
1.27203812
1.27158603
1.27113373
1.27068043
1.27022691
1.26977240
1.26931798
1.26886263
1.26840700
1.26795111
1.26749392
1.26703682
1.26657877
1.26612046
1.26566155
1.26520238
1.26474258
1.26428150
1.26382088
1.26335894
1.26289708
1.26243497
1.26197122
1.26150791
1.26104399
1.26057879
1.26011402
1.25964830
1.25918165
1.25871508
1.25824823
1.25777978
1.25731176
1.25684311
1.25637390
1.25590373
1.25543331
1.25496263
1.25449138
1.25401880
1.25354668
1.25307360
1.25260032
1.25212640
1.25165115
1.25117644
1.25070073
1.25022479
1.24974825
1.24927148
1.24879338
1.24831505
1.24783649
1.24735730
1.24687792
1.24639757
1.24591696
1.24543579
1.24495399
1.24447200
1.24398864
1.24350546
1.24302165
1.24253725
1.24205229
1.24156707
1.24108126
1.24059485
1.24010786
1.23962064
1.23913283
1.23864443
1.23815540
1.23766582
1.23717602
1.23668597
1.23619537
1.23570376
1.23521159
1.23471918
1.23422621
1.23373261
1.23323843
1.23274403
1.23224909
1.23175390
1.23125773
1.23076137
1.23026402
1.22976647
1.22926834
1.22877035
1.22827142
1.22777152
1.22727138
1.22677068
1.22627014
1.22576867
1.22526617
1.22476352
1.22426102
1.22375716
1.22325310
1.22274845
1.22224361
1.22173818
1.22123182
1.22072557
1.22021839
1.21971062
1.21920306
1.21869448
1.21818495
1.21767603
1.21716570
1.21665482
1.21614411
1.21563246
1.21512098
1.21460813
1.21409472
1.21358150
1.21306729
1.21255331
1.21203794
1.21152279
1.21100666
1.21049034
1.20997305
1.20945598
1.20893788
1.20841965
1.20790043
1.20738141
1.20686103
1.20634084
1.20581971
1.20529837
1.20477607
1.20425398
1.20373171
1.20320764
1.20268422
1.20215940
1.20163482
1.20111008
1.20058353
1.20005763
1.19953033
1.19900323
1.19847602
1.19794740
1.19741858
1.19688963
1.19635966
1.19582956
1.19529885
1.19476798
1.19423616
1.19370414
1.19317154
1.19263795
1.19210462
1.19157072
1.19103624
1.19050119
1.18996515
1.18942937
1.18889302
1.18835648
1.18781898
1.18728049
1.18674223
1.18620344
1.18566403
1.18512448
1.18458397
1.18404285
1.18350158
1.18295979
1.18241781
1.18187482
1.18133170
1.18078800
1.18024417
1.17969933
1.17915431
1.17860877
1.17806265
1.17751636
1.17696867
1.17642128
1.17587327
1.17532474
1.17477560
1.17422637
1.17367696
1.17312655
1.17257557
1.17202446
1.17147278
1.17092014
1.17036773
1.16981435
1.16926040
1.16870633
1.16815169
1.16759648
1.16704071
1.16648521
1.16592874
1.16537167
1.16481408
1.16425632
1.16369759
1.16313870
1.16257969
1.16201972
1.16145958
1.16089843
1.16033717
1.15977623
1.15921384
1.15865088
1.15808781
1.15752458
1.15696038
1.15639607
1.15583075
1.15526572
1.15469973
1.15413317
1.15356691
1.15299918
1.15243139
1.15186345
1.15129449
1.15072547
1.15015626
1.14958566
1.14901492
1.14844452
1.14787266
1.14730115
1.14672862
1.14615549
1.14558230
1.14500856
1.14443466
1.14385980
1.14328484
1.14270882
1.14213274
1.14155652
1.14097887
1.14040200
1.13982364
1.13924566
1.13866624
1.13808756
1.13750749
1.13692728
1.13634693
1.13576562
1.13518421
1.13460177
1.13401972
1.13343618
1.13285297
1.13226967
1.13168494
1.13110011
1.13051469
1.12992922
1.12934316
1.12875607
1.12816937
1.12758217
1.12699390
1.12640554
1.12581710
1.12522717
1.12463763
1.12404754
1.12345690
1.12286523
1.12227391
1.12168209
1.12108967
1.12049627
1.11990327
1.11930968
1.11871554
1.11812089
1.11752517
1.11692943
1.11633356
1.11573715
1.11514019
1.11454220
1.11394462
1.11334602
1.11274734
1.11214861
1.11154884
1.11094895
1.11034809
1.10974668
1.10914520
1.10854318
1.10794105
1.10733837
1.10673519
1.10613142
1.10552759
1.10492278
1.10431786
1.10371239
1.10310638
1.10250031
1.10189326
1.10128605
1.10067835
1.10007011
1.09946181
1.09885247
1.09824309
1.09763311
1.09702264
1.09641211
1.09580149
1.09518984
1.09457769
1.09396494
1.09335171
1.09273837
1.09212450
1.09151013
1.09089568
1.09028068
1.08966463
1.08904855
1.08843193
1.08781476
1.08719806
1.08658026
1.08596198
1.08534315
1.08472474
1.08410483
1.08348484
1.08286386
1.08224379
1.08162223
1.08100008
1.08037795
1.07975573
1.07913247
1.07850918
1.07788535
1.07726099
1.07663608
1.07601115
1.07538517
1.07475916
1.07413313
1.07350605
1.07287843
1.07225073
1.07162255
1.07099430
1.07036505
1.06973573
1.06910540
1.06847501
1.06784459
1.06721266
1.06658169
1.06594916
1.06531712
1.06468351
1.06405093
1.06341677
1.06278260
1.06214789
1.06151317
1.06087688
1.06024156
1.05960472
1.05896839
1.05833148
1.05769304
1.05705558
1.05641660
1.05577808
1.05513903
1.05449846
1.05385887
1.05321770
1.05257705
1.05193587
1.05129316
1.05065139
1.05000862
1.04936532
1.04872202
1.04807818
1.04743329
1.04678840
1.04614346
1.04549804
1.04485103
1.04420503
1.04355797
1.04291097
1.04226233
1.04161475
1.04096616
1.04031700
1.03966784
1.03901709
1.03836741
1.03771667
1.03706540
1.03641415
1.03576236
1.03510898
1.03445668
1.03380327
1.03314992
1.03249605
1.03184159
1.03118667
1.03053117
1.02987574
1.02921864
1.02856216
1.02790564
1.02724806
1.02659049
1.02593192
1.02527330
1.02461471
1.02395505
1.02329536
1.02263471
1.02197397
1.02131277
1.02065159
1.01998934
1.01932706
1.01866431
1.01800104
1.01733829
1.01667393
1.01600964
1.01534479
1.01467946
1.01401356
1.01334769
1.01268081
1.01201389
1.01134751
1.01067962
1.01001165
1.00934271
1.00867376
1.00800423
1.00733535
1.00666484
1.00599436
1.00532331
1.00465180
1.00398027
1.00330828
1.00263516
1.00196214
1.00128910
1.00061504
0.99994097
0.99926694
0.99859183
0.99791565
0.99724007
0.99656398
0.99588737
0.99521024
0.99453317
0.99385501
0.99317747
0.99249828
0.99181908
0.99114000
0.99045983
0.98977909
0.98909903
0.98841783
0.98773668
0.98705451
0.98637290
0.98568970
0.98500707
0.98432335
0.98363913
0.98295496
0.98227027
0.98158565
0.98089937
0.98021430
0.97952757
0.97884147
0.97815480
0.97746653
0.97677948
0.97609071
0.97540205
0.97471289
0.97402373
0.97333407
0.97264337
0.97195327
0.97126149
0.97057042
0.96987879
0.96918606
0.96849399
0.96780140
0.96710715
0.96641355
0.96572002
0.96502482
0.96433022
0.96363517
0.96293844
0.96224296
0.96154633
0.96084983
0.96015160
0.95945408
0.95875659
0.95805801
0.95735839
0.95665938
0.95595987
0.95525990
0.95455996
0.95385834
0.95315739
0.95245594
0.95175398
0.95105151
0.95034907
0.94964560
0.94894162
0.94823773
0.94753333
0.94682896
0.94612356
0.94541818
0.94471236
0.94400598
0.94329969
0.94259237
0.94188507
0.94117727
0.94046903
0.93976082
0.93905092
0.93834171
0.93763200
0.93692239
0.93621167
0.93550105
0.93478988
0.93407826
0.93336614
0.93265352
0.93194034
0.93122732
0.93051380
0.92979972
0.92908520
0.92837012
0.92765514
0.92694033
0.92622436
0.92550788
0.92479091
0.92407404
0.92335674
0.92263827
0.92192106
0.92120220
0.92048346
0.91976360
0.91904386
0.91832422
0.91760403
0.91688280
0.91616167
0.91544060
0.91471849
0.91399581
0.91327271
0.91255026
0.91182671
0.91110273
0.91037880
0.90965376
0.90892885
0.90820405
0.90747814
0.90675118
0.90602545
0.90529812
0.90457079
0.90384364
0.90311539
0.90238781
0.90165856
0.90092882
0.90019983
0.89946966
0.89874023
0.89800914
0.89727873
0.89654666
0.89581464
0.89508338
0.89435045
0.89361758
0.89288422
0.89215100
0.89141666
0.89068245
0.88994775
0.88921318
0.88847813
0.88774133
0.88700586
0.88626871
0.88553232
0.88479419
0.88405739
0.88331947
0.88258050
0.88184223
0.88110354
0.88036303
0.87962393
0.87888314
0.87814243
0.87740186
0.87666017
0.87591863
0.87517660
0.87443472
0.87369108
0.87294822
0.87220488
0.87146041
0.87071609
0.86997186
0.86922720
0.86848143
0.86773574
0.86698962
0.86624360
0.86549709
0.86474888
0.86400140
0.86325350
0.86250569
0.86175739
0.86100861
0.86025813
0.85950838
0.85875872
0.85800807
0.85725745
0.85650641
0.85575488
0.85500352
0.85425103
0.85349863
0.85274453
0.85199123
0.85123804
0.85048377
0.84972961
0.84897439
0.84821926
0.84746430
0.84670828
0.84595171
0.84519531
0.84443842
0.84368112
0.84292328
0.84216560
0.84140680
0.84064940
0.83989029
0.83913069
0.83837061
0.83761071
0.83684961
0.83608875
0.83532741
0.83456618
0.83380388
0.83304235
0.83227974
0.83151660
0.83075298
0.82998894
0.82922502
0.82846128
0.82769640
0.82693104
0.82616527
0.82540022
0.82463409
0.82386689
0.82309974
0.82233351
0.82156547
0.82079762
0.82002863
0.81926110
0.81849182
0.81772200
0.81695310
0.81618299
0.81541181
0.81464209
0.81387055
0.81309861
0.81232747
0.81155518
0.81078241
0.81000991
0.80923619
0.80846335
0.80768935
0.80691422
0.80614055
0.80536514
0.80459060
0.80381424
0.80303875
0.80226205
0.80148629
0.80070871
0.79993194
0.79915342
0.79837570
0.79759691
0.79681893
0.79603912
0.79526020
0.79448019
0.79370033
0.79291931
0.79213851
0.79135723
0.79057616
0.78979462
0.78901193
0.78822945
0.78744718
0.78666308
0.78587981
0.78509545
0.78431130
0.78352730
0.78274154
0.78195660
0.78117126
0.78038470
0.77959911
0.77881230
0.77802571
0.77723803
0.77645050
0.77566251
0.77487473
0.77408511
0.77329640
0.77250723
0.77171758
0.77092678
0.77013690
0.76934648
0.76855566
0.76776437
0.76697193
0.76617964
0.76538765
0.76459513
0.76380221
0.76300875
0.76221490
0.76142121
0.76062574
0.75983112
0.75903603
0.75824048
0.75744517
0.75664869
0.75585244
0.75505574
0.75425857
0.75346093
0.75266353
0.75186567
0.75106665
0.75026849
0.74946924
0.74866953
0.74786998
0.74706934
0.74626895
0.74546802
0.74466733
0.74386554
0.74306393
0.74226122
0.74145869
0.74065640
0.73985365
0.73905043
0.73824606
0.73744199
0.73663740
0.73583298
0.73502747
0.73422291
0.73341719
0.73261101
0.73180429
0.73099719
0.73018962
0.72938295
0.72857518
0.72776695
0.72695819
0.72615040
0.72534080
0.72453138
0.72372157
0.72291195
0.72210187
0.72129061
0.72048033
0.71966888
0.71885626
0.71804396
0.71723250
0.71641993
0.71560620
0.71479344
0.71397951
0.71316648
0.71235164
0.71153634
0.71072267
0.70990646
0.70909188
0.70827547
0.70745854
0.70664260
0.70582555
0.70500870
0.70419067
0.70337364
0.70255477
0.70173683
0.70091771
0.70009886
0.69927883
0.69845980
0.69763886
0.69681893
0.69599781
0.69517690
0.69435560
0.69353385
0.69271231
0.69188966
0.69106721
0.69024366
0.68942103
0.68859731
0.68777305
0.68694908
0.68612399
0.68529912
0.68447452
0.68364808
0.68282259
0.68199664
0.68116951
0.68034340
0.67951610
0.67868902
0.67786082
0.67703291
0.67620455
0.67537501
0.67454641
0.67371744
0.67288795
0.67205809
0.67122703
0.67039693
0.66956572
0.66873473
0.66790329
0.66707073
0.66623839
0.66540635
0.66457386
0.66374092
0.66290753
0.66207303
0.66123875
0.66040470
0.65956960
0.65873465
0.65790008
0.65706431
0.65622810
0.65539211
0.65455575
0.65371887
0.65288162
0.65204393
0.65120646
0.65036788
0.64952952
0.64869072
0.64785155
0.64701262
0.64617248
0.64533265
0.64449238
0.64365167
0.64281059
0.64196966
0.64112769
0.64028588
0.63944370
0.63860108
0.63775801
0.63691450
0.63607199
0.63522835
0.63438427
0.63353967
0.63269471
0.63185006
0.63100565
0.63016004
0.62931407
0.62846758
0.62762064
0.62677479
0.62592781
0.62507956
0.62423162
0.62338324
0.62253595
0.62168746
0.62083776
0.61998914
0.61913933
0.61828984
0.61743914
0.61658946
0.61573789
0.61488664
0.61403641
0.61318428
0.61233164
0.61148017
0.61062742
0.60977499
0.60892144
0.60806738
0.60721441
0.60636031
0.60550647
0.60465142
0.60379594
0.60294078
0.60208519
0.60122994
0.60037270
0.59951735
0.59866001
0.59780301
0.59694550
0.59608840
0.59522932
0.59437204
0.59351286
0.59265402
0.59179467
0.59093566
0.59007474
0.58921563
0.58835539
0.58749386
0.58663346
0.58577184
0.58491064
0.58404893
0.58318601
0.58232421
0.58146042
0.58059776
0.57973466
0.57887035
0.57800709
0.57714348
0.57627865
0.57541339
0.57454840
0.57368306
0.57281728
0.57195099
0.57108514
0.57021878
0.56935127
0.56848405
0.56761718
0.56674909
0.56588064
0.56501248
0.56414388
0.56327486
0.56240619
0.56153630
0.56066598
0.55979602
0.55892564
0.55805482
0.55718436
0.55631348
0.55544129
0.55456875
0.55369658
0.55282469
0.55195166
0.55107899
0.55020582
0.54933221
0.54845826
0.54758380
0.54670971
0.54583447
0.54495953
0.54408415
0.54320843
0.54233299
0.54145634
0.54058005
0.53970334
0.53882620
0.53794863
0.53707063
0.53619293
0.53531409
0.53443561
0.53355671
0.53267891
0.53179916
0.53091891
0.53003911
0.52915880
0.52827815
0.52739700
0.52651550
0.52563510
0.52475348
0.52387151
0.52298903
0.52210614
0.52122362
0.52034068
0.51945732
0.51857272
0.51768851
0.51680549
0.51592043
0.51503576
0.51414985
0.51326507
0.51237913
0.51149357
0.51060752
0.50972112
0.50883349
0.50794698
0.50705931
0.50617196
0.50528418
0.50439607
0.50350663
0.50261841
0.50172903
0.50084070
0.49995047
0.49905975
0.49817024
0.49727949
0.49638995
0.49549836
0.49460635
0.49371547
0.49282270
0.49193099
0.49103811
0.49014638
0.48925267
0.48836018
0.48746563
0.48657222
0.48567765
0.48478423
0.48388874
0.48299456
0.48209989
0.48120314
0.48030845
0.47941178
0.47851543
0.47761949
0.47672148
0.47582470
0.47492668
0.47402990
0.47313188
0.47223343
0.47133457
0.47043687
0.46953635
0.46863790
0.46773812
0.46683800
0.46593747
0.46503728
0.46413750
0.46323572
0.46233436
0.46143333
0.46053189
0.45962845
0.45872618
0.45782433
0.45692123
0.45601696
0.45511404
0.45421053
0.45330661
0.45240311
0.45149836
0.45059236
0.44968762
0.44878238
0.44787681
0.44697083
0.44606520
0.44515839
0.44425201
0.44334514
0.44243709
0.44152939
0.44062136
0.43971368
0.43880567
0.43789716
0.43698824
0.43607891
0.43516925
0.43425995
0.43334938
0.43243925
0.43152871
0.43061775
0.42970723
0.42879546
0.42788412
0.42697237
0.42606013
0.42514756
0.42423543
0.42332280
0.42240985
0.42149564
0.42058179
0.41966761
0.41875379
0.41783879
0.41692500
0.41600995
0.41509458
0.41417871
0.41326244
0.41234584
0.41143045
0.41051381
0.40959675
0.40867929
0.40776142
0.40684486
0.40592617
0.40500793
0.40408929
0.40317101
0.40225155
0.40133254
0.40041304
0.39949322
0.39857300
0.39765314
0.39673210
0.39581057
0.39489035
0.39396895
0.39304707
0.39212563
0.39120302
0.39027991
0.38935813
0.38843430
0.38751170
0.38658784
0.38566357
0.38474063
0.38381555
0.38289172
0.38196669
0.38104214
0.38011631
0.37919094
0.37826509
0.37733978
0.37641234
0.37548614
0.37455876
0.37363262
0.37270443
0.37177749
0.37084850
0.36992075
0.36899182
0.36806415
0.36713520
0.36620584
0.36527609
0.36434602
0.36341633
0.36248704
0.36155576
0.36062487
0.35969437
0.35876268
0.35783146
0.35689985
0.35596783
0.35503532
0.35410338
0.35316928
0.35223733
0.35130419
