corrn_curve_linear
1.66734064
1.66645040
1.66555893
1.66466868
1.66377721
1.66288702
1.66199678
1.66110659
1.66021635
1.65932610
1.65843714
1.65754696
1.65665800
1.65576776
1.65487880
1.65398984
1.65310088
1.65221193
1.65132419
1.65043524
1.64954757
1.64865861
1.64777217
1.64688444
1.64599677
1.64510903
1.64422130
1.64333486
1.64244719
1.64156075
1.64067430
1.63978786
1.63890142
1.63801497
1.63712976
1.63624331
1.63535816
1.63447300
1.63358656
1.63270134
1.63181619
1.63093226
1.63004704
1.62916189
1.62827796
1.62739403
1.62651010
1.62562488
1.62474224
1.62385831
1.62297439
1.62209175
1.62120782
1.62032511
1.61944247
1.61855983
1.61767713
1.61679449
1.61591179
1.61502915
1.61414902
1.61326632
1.61238490
1.61150349
1.61062085
1.60974072
1.60885931
1.60797918
1.60709777
1.60621758
1.60533745
1.60445733
1.60357714
1.60269701
1.60181689
1.60093799
1.60005780
1.59917896
1.59830006
1.59742116
1.59654103
1.59566336
1.59478452
1.59390562
1.59302672
1.59214911
1.59127273
1.59039383
1.58951621
1.58863860
1.58776093
1.58688454
1.58600693
1.58513054
1.58425422
1.58337719
1.58250081
1.58162506
1.58074810
1.57987300
1.57899726
1.57812216
1.57724578
1.57637068
1.57549552
1.57461978
1.57374533
1.57287081
1.57199700
1.57112248
1.57024739
1.56937352
1.56849971
1.56762648
1.56675261
1.56587874
1.56500551
1.56413235
1.56325970
1.56238712
1.56151454
1.56064066
1.55976873
1.55889614
1.55802414
1.55715285
1.55628085
1.55540955
1.55453820
1.55366690
1.55279554
1.55192483
1.55105347
1.55018218
1.54931147
1.54844140
1.54757069
1.54670062
1.54583055
1.54496113
1.54409099
1.54322157
1.54235337
1.54148395
1.54061511
1.53974633
1.53887748
1.53800870
1.53713986
1.53627166
1.53540353
1.53453533
1.53366713
1.53279958
1.53193267
1.53106569
1.53019814
1.52933059
1.52846368
1.52759677
1.52673108
1.52586417
1.52499785
1.52413158
1.52326525
1.52240021
1.52153395
1.52066826
1.51980258
1.51893696
1.51807250
1.51720746
1.51634242
1.51547867
1.51461363
1.51374924
1.51288484
1.51202103
1.51115727
1.51029288
1.50942971
1.50856590
1.50770279
1.50684026
1.50597645
1.50511457
1.50425146
1.50338829
1.50252641
1.50166389
1.50080136
1.49994013
1.49907760
1.49821694
1.49735442
1.49649383
1.49563253
1.49477194
1.49391006
1.49305004
1.49218874
1.49132873
1.49046814
1.48960877
1.48874812
1.48788875
1.48702810
1.48616937
1.48530936
1.48445064
1.48359063
1.48273255
1.48187377
1.48101440
1.48015632
1.47929754
1.47843946
1.47758196
1.47672324
1.47586575
1.47500889
1.47415075
1.47329390
1.47243705
1.47157897
1.47072276
1.46986591
1.46900906
1.46815279
1.46729658
1.46644102
1.46558416
1.46472854
1.46387297
1.46301799
1.46216178
1.46130680
1.46045182
1.45959684
1.45874127
1.45788694
1.45703260
1.45617826
1.45532457
1.45447023
1.45361589
1.45276220
1.45190850
1.45105539
1.45020234
1.44934923
1.44849618
1.44764307
1.44679067
1.44593697
1.44508450
1.44423268
1.44338021
1.44252845
1.44167663
1.44082545
1.43997363
1.43912245
1.43827120
1.43742003
1.43656885
1.43571831
1.43486713
1.43401653
1.43316665
1.43231605
1.43146616
1.43061620
1.42976631
1.42891636
1.42806769
1.42721839
1.42636908
1.42551977
1.42467110
1.42382244
1.42297313
1.42212446
1.42127709
1.42042907
1.41958098
1.41873296
1.41788494
1.41703686
1.41619071
1.41534269
1.41449589
1.41364852
1.41280108
1.41195557
1.41110878
1.41026205
1.40941525
1.40856975
1.40772360
1.40687745
1.40603252
1.40518702
1.40434086
1.40349658
1.40265108
1.40180615
1.40096194
1.40011701
1.39927215
1.39842787
1.39758359
1.39673937
1.39589574
1.39505146
1.39420846
1.39336483
1.39252055
1.39167820
1.39083456
1.38999215
1.38914916
1.38830682
1.38746382
1.38662141
1.38577971
1.38493730
1.38409560
1.38325319
1.38241206
1.38157036
1.38072924
1.37988876
1.37904700
1.37820652
1.37736540
1.37652492
1.37568444
1.37484461
1.37400471
1.37316359
1.37232440
1.37148393
1.37064468
1.36980607
1.36896559
1.36812698
1.36728838
1.36644854
1.36561058
1.36477197
1.36393278
1.36309482
1.36225744
1.36141825
1.36058093
1.35974355
1.35890623
1.35806827
1.35723095
1.35639421
1.35555754
1.35471958
1.35388348
1.35304675
1.35221072
1.35137462
1.35053724
1.34970186
1.34886576
1.34803032
1.34719487
1.34636006
1.34552397
1.34468852
1.34385372
1.34301885
1.34218469
1.34134989
1.34051566
1.33968150
1.33884728
1.33801376
1.33717890
1.33634538
1.33551180
1.33467822
1.33384471
1.33301178
1.33217884
1.33134591
1.33051297
1.32968068
1.32884839
1.32801610
1.32718375
1.32635146
1.32551981
1.32468875
1.32385775
1.32302604
1.32219440
1.32136333
1.32053233
1.31970127
1.31887020
1.31803978
1.31720943
1.31637965
1.31554923
1.31471945
1.31388903
1.31305926
1.31222948
1.31140093
1.31057180
1.30974203
1.30891283
1.30808370
1.30725580
1.30642731
1.30559812
1.30476963
1.30394237
1.30311382
1.30228591
1.30145801
1.30063075
1.29980348
1.29897564
1.29814896
1.29732170
1.29649444
1.29566847
1.29484179
1.29401453
1.29318920
1.29236252
1.29153590
1.29071051
1.28988454
1.28905979
1.28823376
1.28740778
1.28658304
1.28575765
1.28493354
1.28410815
1.28328405
1.28245930
1.28163520
1.28081045
1.27998700
1.27916283
1.27833937
1.27751527
1.27669239
1.27586829
1.27504541
1.27422196
1.27339908
1.27257562
1.27175339
1.27093180
1.27010828
1.26928669
1.26846382
1.26764223
1.26682128
1.26599841
1.26517746
1.26435523
1.26353422
1.26271393
1.26189234
1.26107133
1.26025103
1.25943002
1.25860973
1.25778936
1.25696964
1.25614935
1.25532963
1.25450991
1.25368955
1.25287047
1.25205140
1.25123233
1.25041325
1.24959353
1.24877511
1.24795668
1.24713883
1.24632040
1.24550133
1.24468348
1.24386569
1.24304784
1.24223064
1.24141286
1.24059501
1.23977780
1.23896066
1.23814410
1.23732690
1.23651034
1.23569378
1.23487787
1.23406131
1.23324533
1.23242941
1.23161350
1.23079817
1.22998161
1.22916634
1.22835100
1.22753573
1.22672040
1.22590577
1.22509173
1.22427704
1.22346235
1.22264830
1.22183426
1.22101963
1.22020617
1.21939212
1.21857808
1.21776468
1.21695128
1.21613788
1.21532448
1.21451230
1.21369955
1.21288673
1.21207397
1.21126179
1.21044904
1.20963686
1.20882533
1.20801322
1.20720169
1.20638952
1.20557798
1.20476774
1.20395621
1.20314468
1.20233380
1.20152349
1.20071260
1.19990236
1.19909148
1.19828182
1.19747157
1.19666133
1.19585232
1.19504201
1.19423241
1.19342340
1.19261374
1.19180478
1.19099635
1.19018675
1.18937773
1.18857001
1.18776099
1.18695326
1.18614489
1.18533646
1.18452873
1.18372100
1.18291386
1.18210613
1.18129905
1.18049125
1.17968417
1.17887767
1.17806994
1.17726409
1.17645694
1.17565108
1.17484400
1.17403872
1.17323228
1.17242643
1.17162115
1.17081529
1.17001008
1.16920422
1.16839965
1.16759380
1.16678916
1.16598517
1.16517996
1.16437539
1.16357076
1.16276684
1.16196285
1.16115822
1.16035487
1.15955160
1.15874761
1.15794426
1.15714157
1.15633758
1.15553488
1.15473218
1.15392948
1.15312614
1.15232402
1.15152197
1.15071985
1.14991715
1.14911574
1.14831427
1.14751279
1.14671138
1.14590927
1.14510786
1.14430703
1.14350620
1.14270537
1.14190390
1.14110371
1.14030288
1.13950270
1.13870316
1.13790298
1.13710337
1.13630319
1.13550300
1.13470346
1.13390392
1.13310496
1.13230600
1.13150711
1.13070815
1.12990984
1.12911094
1.12831263
1.12751431
1.12671600
1.12591833
1.12512008
1.12432234
1.12352467
1.12272700
1.12192998
1.12113231
1.12033528
1.11953819
1.11874117
1.11794479
1.11714899
1.11635254
1.11555616
1.11475972
1.11396333
1.11316753
1.11237173
1.11157600
1.11078084
1.10998569
1.10918989
1.10839473
1.10759957
1.10680442
1.10601055
1.10521598
1.10442147
1.10362696
1.10283367
1.10203916
1.10124523
1.10045072
1.09965807
1.09886421
1.09807028
1.09727706
1.09648441
1.09569113
1.09489849
1.09410585
1.09331320
1.09252056
1.09172857
1.09093592
1.09014393
1.08935258
1.08856058
1.08776858
1.08697717
1.08618581
1.08539504
1.08460369
1.08381292
1.08302157
1.08223079
1.08144067
1.08064931
1.07985983
1.07906906
1.07827958
1.07748881
1.07669997
1.07590984
1.07512036
1.07433088
1.07354204
1.07275191
1.07196365
1.07117417
1.07038598
1.06959772
1.06880824
1.06802063
1.06723179
1.06644417
1.06565656
1.06486772
1.06408076
1.06329250
1.06250553
1.06171856
1.06093037
1.06014398
1.05935701
1.05857004
1.05778372
1.05699740
1.05621043
1.05542411
1.05463836
1.05385268
1.05306572
1.05228062
1.05149487
1.05070984
1.04992345
1.04913900
1.04835396
1.04756887
1.04678441
1.04599867
1.04521486
1.04443040
1.04364595
1.04286214
1.04207833
1.04129323
1.04051007
1.03972620
1.03894303
1.03815987
1.03737664
1.03659347
1.03581024
1.03502772
1.03424385
1.03346133
1.03267939
1.03189681
1.03111487
1.03033235
1.02955041
1.02876911
1.02798717
1.02720581
1.02642394
1.02564258
1.02486128
1.02408063
1.02329934
1.02251862
1.02173797
1.02095732
1.02017790
1.01939718
1.01861718
1.01783711
1.01705710
1.01627703
1.01549761
1.01471760
1.01393818
1.01315998
1.01238061
1.01160177
1.01082241
1.01004363
1.00926478
1.00848729
1.00770851
1.00693037
1.00615217
1.00537404
1.00459648
1.00381899
1.00304079
1.00226330
1.00148639
1.00070890
0.99993199
0.99915572
0.99837881
0.99760125
0.99682499
0.99604872
0.99527245
0.99449619
0.99372057
0.99294430
0.99216932
0.99139306
0.99061737
0.98984239
0.98906677
0.98829108
0.98751675
0.98674171
0.98596731
0.98519234
0.98441858
0.98364361
0.98286986
0.98209546
0.98132106
0.98054731
0.97977356
0.97900045
0.97822605
0.97745359
0.97667984
0.97590738
0.97513485
0.97436110
0.97358928
0.97281611
0.97204364
0.97127118
0.97049930
0.96972742
0.96895495
0.96818371
0.96741119
0.96664001
0.96586878
0.96509689
0.96432630
0.96355571
0.96278382
0.96201323
0.96124328
0.96047205
0.95970203
0.95893208
0.95816085
0.95739154
0.95662153
0.95585223
0.95508157
0.95431226
0.95354354
0.95277417
0.95200422
0.95123550
0.95046678
0.94969812
0.94893004
0.94816067
0.94739259
0.94662451
0.94585643
0.94508835
0.94432086
0.94355278
0.94278470
0.94201726
0.94124983
0.94048298
0.93971554
0.93894869
0.93818190
0.93741504
0.93664884
0.93588205
0.93511584
0.93434963
0.93358348
0.93281792
0.93205106
0.93128550
0.93051993
0.92975501
0.92898945
0.92822453
0.92745955
0.92669463
0.92592971
0.92516479
0.92439980
0.92363553
0.92287125
0.92210691
0.92134264
0.92057830
0.91981460
0.91905162
0.91828792
0.91752423
0.91676053
0.91599748
0.91523449
0.91447080
0.91370897
0.91294592
0.91218352
0.91142047
0.91065806
0.90989630
0.90913448
0.90837207
0.90761031
0.90684913
0.90608737
0.90532554
0.90456378
0.90380324
0.90304206
0.90228095
0.90152041
0.90075923
0.89999869
0.89923880
0.89847827
0.89771715
0.89695784
0.89619737
0.89543741
0.89467817
0.89391827
0.89315961
0.89239972
0.89163982
0.89088122
0.89012191
0.88936389
0.88860464
0.88784662
0.88708737
0.88632871
0.88557133
0.88481273
0.88405471
0.88329669
0.88253931
0.88178129
0.88102391
0.88026653
0.87950980
0.87875307
0.87799505
0.87723889
0.87648152
0.87572543
0.87496805
0.87421254
0.87345639
0.87269966
0.87194415
0.87118871
0.87043191
0.86967705
0.86892096
0.86816545
0.86741059
0.86665508
0.86590022
0.86514536
0.86439114
0.86363563
0.86288141
0.86212720
0.86137233
0.86061812
0.85986448
0.85911090
0.85835669
0.85760305
0.85684947
0.85609648
0.85534349
0.85458927
0.85383628
0.85308335
0.85233100
0.85157865
0.85082630
0.85007273
0.84932038
0.84856861
0.84781633
0.84706456
0.84631286
0.84556115
0.84481009
0.84405839
0.84330726
0.84255492
0.84180386
0.84105338
0.84030232
0.83955184
0.83880078
0.83805030
0.83730047
0.83655005
0.83579957
0.83504974
0.83429991
0.83355014
0.83280030
0.83205111
0.83130128
0.83055331
0.82980412
0.82905493
0.82830574
0.82755720
0.82680795
0.82605940
0.82531086
0.82456289
0.82381435
0.82306703
0.82231913
0.82157116
0.82082320
0.82007530
0.81932798
0.81858130
0.81783398
0.81708666
0.81633940
0.81559331
0.81484663
0.81409938
0.81335264
0.81260725
0.81186058
0.81111455
0.81036787
0.80962307
0.80887704
0.80813094
0.80738620
0.80664075
0.80589472
0.80515056
0.80440511
0.80365972
0.80291556
0.80217075
0.80142595
0.80068185
0.79993705
0.79919353
0.79844937
0.79770456
0.79696163
0.79621747
0.79547459
0.79473043
0.79398756
0.79324398
0.79250175
0.79175824
0.79101595
0.79027243
0.78953014
0.78878727
0.78804562
0.78730268
0.78656104
0.78581881
0.78507716
0.78433487
0.78359322
0.78285158
0.78211058
0.78136957
0.78062793
0.77988692
0.77914657
0.77840492
0.77766450
0.77692350
0.77618314
0.77544336
0.77470236
0.77396258
0.77322287
0.77248245
0.77174338
0.77100360
0.77026447
0.76952476
0.76878563
0.76804649
0.76730801
0.76656823
0.76582974
0.76509125
0.76435276
0.76361363
0.76287579
0.76213788
0.76140004
0.76066220
0.75992371
0.75918580
0.75844860
0.75771134
0.75697414
0.75623688
0.75549968
0.75476306
0.75402522
0.75328860
0.75255198
0.75181536
0.75107939
0.75034277
0.74960680
0.74887082
0.74813485
0.74739888
0.74666355
0.74592822
0.74519225
0.74445750
0.74372217
0.74298684
0.74225209
0.74151676
0.74078208
0.74004733
0.73931323
0.73857854
0.73784444
0.73710975
0.73637565
0.73564219
0.73490873
0.73417527
0.73344117
0.73270777
0.73197431
0.73124143
0.73050798
0.72977581
0.72904299
0.72831018
0.72757730
0.72684448
0.72611167
0.72538008
0.72464791
0.72391574
0.72318350
0.72245256
0.72172039
0.72098880
0.72025727
0.71952633
0.71879538
0.71806379
0.71733349
0.71660255
0.71587096
0.71514008
0.71441036
0.71368006
0.71294911
0.71221946
0.71148916
0.71076008
0.71002978
0.70929948
0.70857105
0.70784075
0.70711232
0.70638266
0.70565294
0.70492451
0.70419550
0.70346707
0.70273800
0.70201021
0.70128120
0.70055341
0.69982498
0.69909720
0.69836877
0.69764163
0.69691319
0.69618605
0.69545827
0.69473106
0.69400392
0.69327678
0.69255022
0.69182308
0.69109652
0.69036937
0.68964346
0.68891696
0.68819040
0.68746448
0.68673799
0.68601207
0.68528680
0.68456030
0.68383503
0.68310976
0.68238384
0.68165921
0.68093394
0.68020925
0.67948398
0.67875935
0.67803473
0.67730945
0.67658541
0.67586142
0.67513738
0.67441340
0.67368877
0.67296537
0.67224138
0.67151798
0.67079458
0.67007060
0.66934720
0.66862444
0.66790168
0.66717892
0.66645617
0.66573283
0.66501007
0.66428789
0.66356520
0.66284302
0.66212155
0.66139944
0.66067733
0.65995580
0.65923433
0.65851280
0.65779133
0.65706986
0.65634897
0.65562750
0.65490662
0.65418573
0.65346490
0.65274466
0.65202377
0.65130353
0.65058329
0.64986304
0.64914287
0.64842320
0.64770302
0.64698336
0.64626376
0.64554416
0.64482457
0.64410497
0.64338659
0.64266764
0.64194869
0.64122967
0.64051071
0.63979240
0.63907468
0.63835630
0.63763799
0.63691962
0.63620125
0.63548416
0.63476650
0.63404812
0.63333039
0.63261267
0.63189623
0.63117914
0.63046141
0.62974497
0.62902789
0.62831145
0.62759436
0.62687851
0.62616142
0.62544498
0.62472977
0.62401333
0.62329682
0.62258167
0.62186581
0.62115060
0.62043480
0.61971895
0.61900438
0.61828923
0.61757466
0.61685944
0.61614423
0.61542966
0.61471509
0.61400116
0.61328595
0.61257267
0.61185810
0.61114417
0.61043018
0.60971690
0.60900233
0.60828963
0.60757570
0.60686242
0.60614908
0.60543638
0.60472245
0.60401040
0.60329776
0.60258442
0.60187236
0.60115966
0.60044767
0.59973561
0.59902291
0.59831150
0.59759880
0.59688739
0.59617598
0.59546392
0.59475309
0.59404233
0.59333092
0.59261951
0.59190867
0.59119791
0.59048714
0.58977631
0.58906619
0.58835600
0.58764524
0.58693505
0.58622551
0.58551532
0.58480520
0.58409566
0.58338612
0.58267658
0.58196768
0.58125814
0.58054860
0.57983970
0.57913080
0.57842191
0.57771366
0.57700540
0.57629644
0.57558755
0.57487929
0.57417162
0.57346337
0.57275576
0.57204809
0.57134042
0.57063281
0.56992514
0.56921811
0.56851051
0.56780348
0.56709645
0.56638949
0.56568311
0.56497608
0.56426970
0.56356331
0.56285693
0.56215055
0.56144417
0.56073836
0.56003198
0.55932624
0.55862051
0.55791599
0.55721026
0.55650445
0.55579936
0.55509420
0.55438911
0.55368395
0.55297886
0.55227499
0.55157048
0.55086603
0.55016152
0.54945700
0.54875314
0.54804927
0.54734540
0.54664089
0.54593702
0.54523444
0.54453057
0.54382735
0.54312348
0.54242084
0.54171761
0.54101503
0.54031239
0.53960981
0.53890659
0.53820459
0.53750201
0.53680001
0.53609801
0.53539608
0.53469344
0.53399208
0.53329015
0.53258938
0.53188744
0.53118544
0.53048473
0.52978338
0.52908332
0.52838196
0.52768061
0.52698048
0.52627919
0.52557906
0.52487835
0.52417887
0.52347816
0.52277874
0.52207803
0.52137854
0.52067848
0.51997964
0.51927951
0.51858074
0.51788190
0.51718177
0.51648357
0.51578415
0.51508531
0.51438712
0.51368763
0.51298944
0.51229060
0.51159305
0.51089485
0.51019666
0.50949846
0.50880149
0.50810265
0.50740575
0.50670813
0.50601058
0.50531303
0.50461606
0.50391974
0.50322219
0.50252528
0.50182896
0.50113263
0.50043508
0.49973876
0.49904308
0.49834675
0.49764984
0.49695429
0.49625861
0.49556293
0.49486790
0.49417222
0.49347589
0.49278085
0.49208575
0.49139072
0.49069568
0.49000123
0.48930619
0.48861180
0.48791734
0.48722231
0.48652785
0.48583346
0.48513965
0.48444590
0.48375209
0.48305828
0.48236447
0.48167072
0.48097756
0.48028374
0.47959058
0.47889741
0.47820425
0.47751172
0.47681856
0.47612604
0.47543351
0.47474093
0.47404841
0.47335653
0.47266459
0.47197271
0.47128019
0.47058825
0.46989637
0.46920507
0.46851320
0.46782254
0.46713125
0.46644002
0.46574872
0.46505742
0.46436619
0.46367618
0.46298553
0.46229488
0.46160423
0.46091357
0.46022421
0.45953356
0.45884355
0.45815354
0.45746412
0.45677411
0.45608475
0.45539532
0.45470596
0.45401659
0.45332781
0.45263845
0.45194902
0.45126088
0.45057217
0.44988338
0.44919525
0.44850653
0.44781775
0.44713025
0.44644153
0.44575404
0.44506590
0.44437777
0.44369092
0.44300278
0.44231587
0.44162837
0.44094152
0.44025403
0.43956718
0.43888027
0.43819407
0.43750657
0.43682030
0.43613346
0.43544783
0.43476098
0.43407536
0.43338851
0.43270289
0.43201668
0.43133171
0.43064608
0.42996046
0.42927484
0.42858928
0.42790430
0.42721990
0.42653434
0.42584936
0.42516496
0.42447998
0.42379565
0.42311131
0.42242698
0.42174258
0.42105889
0.42037391
0.41969080
0.41900711
