corrn_curve_cubic
1.40831389
1.40803126
1.40774748
1.40746335
1.40717807
1.40689247
1.40660609
1.40631899
1.40603113
1.40574251
1.40545357
1.40516349
1.40487306
1.40458147
1.40428955
1.40399689
1.40370349
1.40340935
1.40311487
1.40281925
1.40252331
1.40222620
1.40192919
1.40163101
1.40133212
1.40103246
1.40073207
1.40043137
1.40012953
1.39982736
1.39952445
1.39922081
1.39891644
1.39861133
1.39830591
1.39799933
1.39769246
1.39738486
1.39707608
1.39676699
1.39645720
1.39614710
1.39583582
1.39552383
1.39521154
1.39489853
1.39458478
1.39426985
1.39395511
1.39363918
1.39332252
1.39300560
1.39268749
1.39236909
1.39204999
1.39173017
1.39140960
1.39108832
1.39076630
1.39044358
1.39012106
1.38979687
1.38947243
1.38914727
1.38882093
1.38849481
1.38816748
1.38783992
1.38751116
1.38718213
1.38685241
1.38652197
1.38619080
1.38585892
1.38552633
1.38519349
1.38485944
1.38452519
1.38419021
1.38385451
1.38351762
1.38318096
1.38284314
1.38250458
1.38216531
1.38182583
1.38148611
1.38114470
1.38080308
1.38046075
1.38011769
1.37977442
1.37942996
1.37908528
1.37873991
1.37839356
1.37804675
1.37769949
1.37735104
1.37700263
1.37665325
1.37630343
1.37595239
1.37560115
1.37524919
1.37489629
1.37454321
1.37418940
1.37383518
1.37347996
1.37312381
1.37276746
1.37241043
1.37205294
1.37169448
1.37133533
1.37097574
1.37061548
1.37025474
1.36989333
1.36953122
1.36916787
1.36880464
1.36844044
1.36807578
1.36771073
1.36734469
1.36697825
1.36661109
1.36624326
1.36587472
1.36550575
1.36513582
1.36476523
1.36439419
1.36402273
1.36365031
1.36327747
1.36290395
1.36253001
1.36215508
1.36177977
1.36140429
1.36102760
1.36065048
1.36027270
1.35989420
1.35951505
1.35913518
1.35875491
1.35837398
1.35799234
1.35761001
1.35722729
1.35684417
1.35646034
1.35607557
1.35569012
1.35530427
1.35491774
1.35453108
1.35414319
1.35375488
1.35336592
1.35297625
1.35258649
1.35219550
1.35180408
1.35141200
1.35101926
1.35062638
1.35023255
1.34983805
1.34944347
1.34904762
1.34865139
1.34825449
1.34785718
1.34745922
1.34706030
1.34666127
1.34626127
1.34586093
1.34546019
1.34505817
1.34465639
1.34425337
1.34384964
1.34344586
1.34304110
1.34263567
1.34223018
1.34182341
1.34141687
1.34100877
1.34060092
1.34019207
1.33978289
1.33937243
1.33896220
1.33855069
1.33813913
1.33772664
1.33731406
1.33690021
1.33648631
1.33607113
1.33565622
1.33524003
1.33482380
1.33440629
1.33398905
1.33357081
1.33315163
1.33273242
1.33231221
1.33189169
1.33147079
1.33104863
1.33062642
1.33020388
1.32978004
1.32935618
1.32893167
1.32850590
1.32808040
1.32765392
1.32722680
1.32679930
1.32637119
1.32594275
1.32551302
1.32508324
1.32465285
1.32422210
1.32379008
1.32335803
1.32292533
1.32249198
1.32205769
1.32162337
1.32118840
1.32075279
1.32031686
1.31987995
1.31944240
1.31900453
1.31856602
1.31812716
1.31768769
1.31724754
1.31680678
1.31636534
1.31592363
1.31548060
1.31503757
1.31459424
1.31414992
1.31370534
1.31326008
1.31281451
1.31236797
1.31192113
1.31147362
1.31102550
1.31057674
1.31012768
1.30967765
1.30922728
1.30877666
1.30832502
1.30787312
1.30742055
1.30696738
1.30651354
1.30605976
1.30560500
1.30514960
1.30469357
1.30423726
1.30378031
1.30332238
1.30286416
1.30240602
1.30194689
1.30148710
1.30102671
1.30056569
1.30010401
1.29964275
1.29917984
1.29871697
1.29825316
1.29778869
1.29732464
1.29685927
1.29639330
1.29592667
1.29546013
1.29499260
1.29452445
1.29405635
1.29358731
1.29311728
1.29264768
1.29217676
1.29170555
1.29123411
1.29076165
1.29028861
1.28981527
1.28934131
1.28886676
1.28839193
1.28791611
1.28744039
1.28696370
1.28648602
1.28600881
1.28553026
1.28505179
1.28457236
1.28409269
1.28361204
1.28313110
1.28264995
1.28216778
1.28168540
1.28120200
1.28071872
1.28023450
1.27975000
1.27926526
1.27877916
1.27829319
1.27780624
1.27731905
1.27683125
1.27634321
1.27585453
1.27536452
1.27487503
1.27438417
1.27389343
1.27340245
1.27290977
1.27241758
1.27192478
1.27143065
1.27093702
1.27044240
1.26994683
1.26945138
1.26895567
1.26845829
1.26796141
1.26746388
1.26696579
1.26646672
1.26596742
1.26546787
1.26496776
1.26446627
1.26396530
1.26346334
1.26296121
1.26245843
1.26195428
1.26145074
1.26094617
1.26044139
1.25993600
1.25943042
1.25892345
1.25841627
1.25790889
1.25740088
1.25689270
1.25638353
1.25587411
1.25536415
1.25485355
1.25434278
1.25383060
1.25331865
1.25280606
1.25229288
1.25177915
1.25126519
1.25075063
1.25023548
1.24971974
1.24920381
1.24868728
1.24817017
1.24765243
1.24713413
1.24661565
1.24609694
1.24557769
1.24505740
1.24453656
1.24401550
1.24349390
1.24297166
1.24244884
1.24192584
1.24140230
1.24087853
1.24035377
1.23982884
1.23930291
1.23877681
1.23825012
1.23772363
1.23719619
1.23666775
1.23613910
1.23560991
1.23508092
1.23455098
1.23402000
1.23348890
1.23295800
1.23242570
1.23189323
1.23136018
1.23082697
1.23029318
1.22975843
1.22922386
1.22868834
1.22815224
1.22761640
1.22707952
1.22654169
1.22600454
1.22546593
1.22492680
1.22438788
1.22384801
1.22330838
1.22276732
1.22222573
1.22168437
1.22114202
1.22059994
1.22005644
1.21951322
1.21896901
1.21842464
1.21787929
1.21733421
1.21678810
1.21624188
1.21569467
1.21514771
1.21459936
1.21405126
1.21350220
1.21295297
1.21240278
1.21185284
1.21130277
1.21075083
1.21019963
1.20964699
1.20909466
1.20854220
1.20798787
1.20743428
1.20687926
1.20632450
1.20576965
1.20521337
1.20465693
1.20410040
1.20354283
1.20298518
1.20242692
1.20186855
1.20130921
1.20074972
1.20018966
1.19962861
1.19906787
1.19850658
1.19794473
1.19738233
1.19681892
1.19625584
1.19569221
1.19512842
1.19456367
1.19399792
1.19343247
1.19286650
1.19229993
1.19173326
1.19116563
1.19059740
1.19002906
1.18946022
1.18889123
1.18832123
1.18775114
1.18718049
1.18660974
1.18603799
1.18546610
1.18489370
1.18432075
1.18374766
1.18317315
1.18259901
1.18202427
1.18144903
1.18087319
1.18029731
1.17972129
1.17914427
1.17856670
1.17798904
1.17741084
1.17683167
1.17625279
1.17567295
1.17509257
1.17451209
1.17393108
1.17334952
1.17276742
1.17218565
1.17160292
1.17101961
1.17043580
1.16985186
1.16926697
1.16868195
1.16809685
1.16751080
1.16692463
1.16633744
1.16575019
1.16516333
1.16457500
1.16398613
1.16339718
1.16280813
1.16221811
1.16162802
1.16103693
1.16044619
1.15985450
1.15926227
1.15867040
1.15807705
1.15748368
1.15689021
1.15629572
1.15570123
1.15510658
1.15451054
1.15391440
1.15331867
1.15272146
1.15212467
1.15152688
1.15092850
1.15033012
1.14973120
1.14913219
1.14853222
1.14793219
1.14733111
1.14673003
1.14612885
1.14552622
1.14492447
1.14432122
1.14371841
1.14311416
1.14251073
1.14190591
1.14130099
1.14069598
1.14009002
1.13948401
1.13887699
1.13827042
1.13766235
1.13705468
1.13644697
1.13583782
1.13522863
1.13461887
1.13400912
1.13339880
1.13278747
1.13217660
1.13156526
1.13095285
1.13034042
1.12972796
1.12911399
1.12850049
1.12788647
1.12727193
1.12665638
1.12604125
1.12542565
1.12480948
1.12419235
1.12357569
1.12295847
1.12234073
1.12172253
1.12110326
1.12048402
1.11986472
1.11924490
1.11862457
1.11800322
1.11738236
1.11676048
1.11613860
1.11551670
1.11489378
1.11427081
1.11364687
1.11302242
1.11239796
1.11177298
1.11114796
1.11052242
1.10989642
1.10926986
1.10864330
1.10801577
1.10738819
1.10676010
1.10613150
1.10550290
1.10487333
1.10424367
1.10361355
1.10298292
1.10235229
1.10172065
1.10108901
1.10045682
1.09982417
1.09919153
1.09855884
1.09792514
1.09729099
1.09665628
1.09602111
1.09538591
1.09475020
1.09411405
1.09347785
1.09284115
1.09220344
1.09156573
1.09092753
1.09028883
1.08965066
1.08901142
1.08837174
1.08773155
1.08709186
1.08645067
1.08580946
1.08516727
1.08452610
1.08388345
1.08324024
1.08259711
1.08195395
1.08130978
1.08066563
1.08002098
1.07937584
1.07873020
1.07808460
1.07743797
1.07679138
1.07614481
1.07549723
1.07484915
1.07420106
1.07355252
1.07290397
1.07225445
1.07160491
1.07095440
1.07030388
1.06965340
1.06900142
1.06835049
1.06769800
1.06704609
1.06639263
1.06574027
1.06508636
1.06443249
1.06377814
1.06312383
1.06246796
1.06181316
1.06115685
1.06050113
1.05984486
1.05918709
1.05853040
1.05787219
1.05721452
1.05655637
1.05589670
1.05523812
1.05457797
1.05391842
1.05325839
1.05259684
1.05193632
1.05127484
1.05061287
1.04995096
1.04928857
1.04862516
1.04796180
1.04729846
1.04663469
1.04596934
1.04530510
1.04463984
1.04397469
1.04330792
1.04264230
1.04197572
1.04130860
1.04064156
1.03997294
1.03930548
1.03863700
1.03796804
1.03729916
1.03662980
1.03595886
1.03528910
1.03461825
1.03394754
1.03327635
1.03260464
1.03193250
1.03125983
1.03058730
1.02991313
1.02923965
1.02856620
1.02789172
1.02721733
1.02654196
1.02586661
1.02519136
1.02451507
1.02383882
1.02316165
1.02248445
1.02180684
1.02112932
1.02045077
1.01977226
1.01909333
1.01841393
1.01773513
1.01705474
1.01637450
1.01569374
1.01501256
1.01433086
1.01364926
1.01296668
1.01228414
1.01160221
1.01091880
1.01023538
1.00955104
1.00886674
1.00818192
1.00749782
1.00681213
1.00612654
1.00544043
1.00475392
1.00406745
1.00338058
1.00269262
1.00200482
1.00131708
1.00062836
0.99993969
0.99925114
0.99856155
0.99787093
0.99718099
0.99649059
0.99579973
0.99510842
0.99441722
0.99372498
0.99303344
0.99234029
0.99164720
0.99095428
0.99026034
0.98956587
0.98887216
0.98817736
0.98748268
0.98678703
0.98609201
0.98539545
0.98469953
0.98400257
0.98330516
0.98260787
0.98191013
0.98121252
0.98051329
0.97981536
0.97911581
0.97841696
0.97771761
0.97701670
0.97631709
0.97561580
0.97491470
0.97421315
0.97351168
0.97280975
0.97210685
0.97140461
0.97070075
0.96999767
0.96929409
0.96858947
0.96788557
0.96718123
0.96647526
0.96577002
0.96506493
0.96435820
0.96365216
0.96294572
0.96223766
0.96153092
0.96082309
0.96011546
0.95940614
0.95869763
0.95798920
0.95727974
0.95656929
0.95585953
0.95514933
0.95443874
0.95372825
0.95301612
0.95230474
0.95159292
0.95088066
0.95016796
0.94945535
0.94874176
0.94802773
0.94731386
0.94659955
0.94588534
0.94517015
0.94445506
0.94373959
0.94302362
0.94230781
0.94159102
0.94087434
0.94015722
0.93943972
0.93872233
0.93800329
0.93728502
0.93656632
0.93584778
0.93512820
0.93440880
0.93368889
0.93296861
0.93224790
0.93152675
0.93080511
0.93008370
0.92936186
0.92863952
0.92791680
0.92719360
0.92647057
0.92574778
0.92502388
0.92429956
0.92357480
0.92285022
0.92212527
0.92139921
0.92067450
0.91994820
0.91922208
0.91849491
0.91776793
0.91704113
0.91631384
0.91558557
0.91485749
0.91412953
0.91340059
0.91267116
0.91194136
0.91121231
0.91048221
0.90975175
0.90902141
0.90829004
0.90755885
0.90682786
0.90609582
0.90536280
0.90463109
0.90389784
0.90316466
0.90243174
0.90169777
0.90096456
0.90022975
0.89949451
0.89876009
0.89802457
0.89728987
0.89655356
0.89581802
0.89508087
0.89434386
0.89360768
0.89286988
0.89213224
0.89139417
0.89065630
0.88991739
0.88917869
0.88843957
0.88770065
0.88696132
0.88622031
0.88548071
0.88473949
0.88399912
0.88325706
0.88251642
0.88177473
0.88103206
0.88029017
0.87954792
0.87880393
0.87806142
0.87731730
0.87657333
0.87582957
0.87508477
0.87434019
0.87359519
0.87285042
0.87210395
0.87135835
0.87061234
0.86986527
0.86911843
0.86837175
0.86762472
0.86687664
0.86612872
0.86538045
0.86463235
0.86388384
0.86313370
0.86238436
0.86163468
0.86088517
0.86013525
0.85938491
0.85863295
0.85788180
0.85713081
0.85637891
0.85562711
0.85487497
0.85412241
0.85337010
0.85261673
0.85186354
0.85110871
0.85035477
0.84960100
0.84884625
0.84809167
0.84733610
0.84658071
0.84582556
0.84506943
0.84431282
0.84355646
0.84279969
0.84204259
0.84128501
0.84052769
0.83976930
0.83901241
0.83825387
0.83749494
0.83673559
0.83597650
0.83521629
0.83445640
0.83369610
0.83293599
0.83217489
0.83141464
0.83065340
0.82989168
0.82912957
0.82836713
0.82760487
0.82684288
0.82607983
0.82531638
0.82455259
0.82378960
0.82302561
0.82226063
0.82149578
0.82073192
0.81996634
0.81920103
0.81843466
0.81766981
0.81690330
0.81613634
0.81537036
0.81460327
0.81383518
0.81306862
0.81230034
0.81153173
0.81076399
0.80999519
0.80922600
0.80845715
0.80768717
0.80691812
0.80614802
0.80537686
0.80460725
0.80383597
0.80306563
0.80229357
0.80152245
0.80075021
0.79997898
0.79920602
0.79843395
0.79766021
0.79688735
0.79611350
0.79534054
0.79456584
0.79379210
0.79301736
0.79224285
0.79146727
0.79069197
0.78991629
0.78914089
0.78836511
0.78758826
0.78681170
0.78603544
0.78525743
0.78448032
0.78370222
0.78292440
0.78214681
0.78136755
0.78058919
0.77981052
0.77903071
0.77825195
0.77747205
0.77669245
0.77591185
0.77513148
0.77435073
0.77357028
0.77278808
0.77200686
0.77122526
0.77044328
0.76966023
0.76887817
0.76809566
0.76731284
0.76652963
0.76574536
0.76496132
0.76417766
0.76339355
0.76260913
0.76182426
0.76103908
0.76025414
0.75946751
0.75868181
0.75789574
0.75710928
0.75632314
0.75553593
0.75474903
0.75396175
0.75317410
0.75238606
0.75159835
0.75081026
0.75002109
0.74923287
0.74844365
0.74765406
0.74686471
0.74607436
0.74528433
0.74449386
0.74370371
0.74291255
0.74212165
0.74132975
0.74053810
0.73974678
0.73895508
0.73816301
0.73736987
0.73657712
0.73578394
0.73499100
0.73419707
0.73340417
0.73261019
0.73181584
0.73102106
0.73022597
0.72943051
0.72863601
0.72784051
0.72704464
0.72624833
0.72545306
0.72465608
0.72385937
0.72306236
0.72226561
0.72146850
0.72067031
0.71987316
0.71907494
0.71827565
0.71747677
0.71667879
0.71587981
0.71507976
0.71428075
0.71348067
0.71268157
0.71188076
0.71107959
0.71028010
0.70947819
0.70867798
0.70787605
0.70707369
0.70627238
0.70547007
0.70466804
0.70386493
0.70306288
0.70225912
0.70145634
0.70065250
0.69984900
0.69904443
0.69824092
0.69743562
0.69663139
0.69582609
0.69502106
0.69421575
0.69341008
0.69260469
0.69179830
0.69099219
0.69018507
0.68937896
0.68857185
0.68776430
0.68695712
0.68614893
0.68534102
0.68453348
0.68372421
0.68291596
0.68210734
0.68129765
0.68048904
0.67967935
0.67886996
0.67805956
0.67724953
0.67643914
0.67562767
0.67481722
0.67400649
0.67319533
0.67238389
0.67157137
0.67075987
0.66994736
0.66913515
0.66832259
0.66750903
0.66669576
0.66588286
0.66506962
0.66425602
0.66344206
0.66262710
0.66181245
0.66099809
0.66018281
0.65936775
0.65855314
0.65773746
0.65692142
0.65610569
0.65528968
0.65447325
0.65365655
0.65283949
0.65202274
0.65120499
0.65038754
0.64956975
0.64875168
0.64793392
0.64711508
0.64629662
0.64547782
0.64465867
0.64383924
0.64302006
0.64219994
0.64138007
0.64055992
0.63973942
0.63891858
0.63809739
0.63727725
0.63645611
0.63563462
0.63481272
0.63399054
0.63316876
0.63234729
0.63152475
0.63070193
0.62987870
0.62905512
0.62823268
0.62740923
0.62658462
0.62576041
0.62493586
0.62411245
0.62328795
0.62246237
0.62163794
0.62081242
0.61998730
0.61916110
0.61833596
0.61750908
0.61668260
0.61585719
0.61503003
0.61420246
0.61337611
0.61254860
0.61172149
0.61089338
0.61006486
0.60923748
0.60840910
0.60758106
0.60675192
0.60592245
0.60509339
0.60426400
0.60343501
0.60260419
0.60177529
0.60094454
0.60011421
0.59928347
0.59845322
0.59762113
0.59679089
0.59595888
0.59512729
0.59429528
0.59346370
0.59263035
0.59179885
0.59096634
0.59013267
0.58930017
0.58846658
0.58763349
0.58679999
0.58596541
0.58513200
0.58429675
0.58346268
0.58262827
0.58179278
0.58095840
0.58012376
0.57928803
0.57845197
0.57761626
0.57678029
0.57594400
0.57510730
0.57427111
0.57343451
0.57259689
0.57175964
0.57092281
0.57008489
0.56924672
0.56840891
0.56757077
0.56673230
0.56589427
0.56505514
0.56421569
0.56337667
0.56253733
0.56169766
0.56085843
0.56001887
0.55917814
0.55833716
0.55749663
0.55665645
0.55581526
0.55497452
0.55413337
0.55329189
0.55245017
0.55160805
0.55076637
0.54992367
0.54908135
0.54823869
0.54739580
0.54655327
0.54570964
0.54486647
0.54402297
0.54317915
0.54233501
0.54149055
0.54064645
0.53980134
0.53895669
0.53811171
0.53726787
0.53642225
0.53557623
0.53473074
0.53388485
0.53303872
0.53219219
0.53134542
0.53049980
0.52965309
0.52880613
0.52795878
0.52711111
0.52626390
0.52541637
0.52456852
0.52371958
0.52287109
0.52202385
0.52117473
0.52032607
0.51947631
0.51862772
0.51777811
0.51692896
0.51607942
0.51522964
0.51437877
0.51352906
0.51267833
0.51182799
0.51097734
0.51012645
0.50927438
0.50842357
0.50757173
0.50672099
0.50586853
0.50501567
0.50416407
0.50331137
0.50245993
0.50160660
0.50075297
0.49990051
0.49904632
0.49819324
0.49733913
0.49648621
0.49563149
0.49477802
0.49392267
0.49306851
0.49221332
0.49135932
0.49050344
0.48964889
0.48879397
0.48793715
0.48708239
0.48622582
0.48536965
0.48451397
0.48365639
0.48280009
0.48194268
0.48108655
0.48022932
0.47937179
0.47851394
0.47765729
0.47679804
0.47594086
0.47508250
0.47422391
0.47336501
0.47250652
0.47164853
0.47078871
0.46992938
0.46907047
0.46821124
0.46735020
0.46649037
0.46563103
0.46477059
0.46390912
0.46304903
0.46218847
0.46132760
0.46046724
0.45960577
0.45874319
0.45788191
0.45702025
0.45615837
0.45529618
0.45443441
0.45357162
0.45270932
0.45184664
0.45098294
0.45011966
0.44925616
0.44839308
0.44752978
0.44666610
0.44580211
0.44493783
0.44407332
0.44320924
0.44234405
0.44147937
0.44061439
0.43974911
0.43888434
0.43801846
0.43715308
0.43628741
0.43542136
0.43455509
0.43368933
0.43282319
0.43195684
0.43108938
0.43022235
0.42935510
0.42848828
0.42762044
0.42675384
0.42588613
0.42501821
0.42414991
0.42328131
0.42241250
0.42154493
0.42067626
0.41980729
0.41893803
0.41806847
0.41720024
0.41633009
0.41546046
0.41459053
0.41372105
0.41285053
0.41198054
0.41111017
0.41023959
0.40936872
0.40849829
0.40762683
0.40675499
0.40588450
0.40501298
0.40414108
0.40326971
0.40239732
0.40152455
0.40065312
0.39977985
0.39890784
0.39803472
0.39716131
0.39628925
0.39541526
0.39454254
0.39366879
0.39279557
0.39192124
0.39104744
0.39017327
0.38929971
0.38842422
0.38755001
0.38667476
0.38580079
0.38492497
0.38405042
0.38317403
0.38229890
0.38142275
0.38054788
0.37967190
0.37879563
0.37791907
0.37704231
0.37616600
0.37529015
0.37441253
0.37353537
0.37265866
0.37178093
0.37090374
0.37002626
0.36914849
0.36827036
0.36739285
0.36651341
0.36563608
0.36475772
