corrn_curve_quadratic
1.44812214
1.44771726
1.44731131
1.44690541
1.44649842
1.44609151
1.44568406
1.44527612
1.44486763
1.44445863
1.44404971
1.44363971
1.44322975
1.44281869
1.44240771
1.44199622
1.44158421
1.44117169
1.44075922
1.44034567
1.43993221
1.43951763
1.43910372
1.43868869
1.43827317
1.43785712
1.43744055
1.43702408
1.43660652
1.43618902
1.43577101
1.43535249
1.43493346
1.43451392
1.43409445
1.43367389
1.43325343
1.43283246
1.43241037
1.43198835
1.43156585
1.43114342
1.43071987
1.43029585
1.42987190
1.42944744
1.42902248
1.42859638
1.42817102
1.42774453
1.42731753
1.42689065
1.42646264
1.42603471
1.42560631
1.42517740
1.42474795
1.42431803
1.42388757
1.42345663
1.42302642
1.42259444
1.42216259
1.42173023
1.42129676
1.42086402
1.42043015
1.41999640
1.41956152
1.41912673
1.41869148
1.41825572
1.41781942
1.41738265
1.41694538
1.41650822
1.41606991
1.41563177
1.41519309
1.41475392
1.41431362
1.41387406
1.41343341
1.41299222
1.41255053
1.41210899
1.41166757
1.41122437
1.41078133
1.41033778
1.40989371
1.40944978
1.40900473
1.40855981
1.40811442
1.40766816
1.40722174
1.40677514
1.40632742
1.40588016
1.40543207
1.40498381
1.40453439
1.40408513
1.40363534
1.40318476
1.40273434
1.40228339
1.40183231
1.40138037
1.40092762
1.40047502
1.40002195
1.39956869
1.39911459
1.39866000
1.39820525
1.39775004
1.39729460
1.39683869
1.39638230
1.39592473
1.39546768
1.39500979
1.39455172
1.39409353
1.39363446
1.39317528
1.39271557
1.39225540
1.39179470
1.39133385
1.39087217
1.39041002
1.38994769
1.38948521
1.38902190
1.38855843
1.38809447
1.38763037
1.38716539
1.38670030
1.38623538
1.38576930
1.38530305
1.38483634
1.38436911
1.38390142
1.38343320
1.38296485
1.38249603
1.38202669
1.38155686
1.38108689
1.38061678
1.38014615
1.37967471
1.37920279
1.37873072
1.37825817
1.37778579
1.37731226
1.37683856
1.37636440
1.37588972
1.37541527
1.37493965
1.37446386
1.37398758
1.37351086
1.37303428
1.37255690
1.37207904
1.37160139
1.37112256
1.37064359
1.37016413
1.36968451
1.36920444
1.36872353
1.36824282
1.36776126
1.36727961
1.36679780
1.36631479
1.36583237
1.36534878
1.36486468
1.36438081
1.36389610
1.36341090
1.36292595
1.36243978
1.36195419
1.36146706
1.36098054
1.36049314
1.36000565
1.35951696
1.35902884
1.35853951
1.35805043
1.35756053
1.35707086
1.35657996
1.35608933
1.35559747
1.35510624
1.35461380
1.35412161
1.35362820
1.35313542
1.35264175
1.35214727
1.35165306
1.35115795
1.35066278
1.35016746
1.34967096
1.34917468
1.34867830
1.34818070
1.34768336
1.34718555
1.34668654
1.34618815
1.34568891
1.34518918
1.34468932
1.34418902
1.34368862
1.34318699
1.34268560
1.34218377
1.34168180
1.34117864
1.34067573
1.34017234
1.33966847
1.33916378
1.33865935
1.33815443
1.33764905
1.33714357
1.33663723
1.33613042
1.33562352
1.33511615
1.33460864
1.33410070
1.33359225
1.33308336
1.33257397
1.33206452
1.33155383
1.33104340
1.33053288
1.33002150
1.32951008
1.32899815
1.32848613
1.32797325
1.32746029
1.32694682
1.32643292
1.32591854
1.32540409
1.32488877
1.32437334
1.32385786
1.32334149
1.32282507
1.32230815
1.32179079
1.32127293
1.32075538
1.32023697
1.31971809
1.31919875
1.31867932
1.31815943
1.31763868
1.31711785
1.31659735
1.31607598
1.31555411
1.31503181
1.31450904
1.31398576
1.31346321
1.31293904
1.31241515
1.31189045
1.31136523
1.31084075
1.31031500
1.30978883
1.30926215
1.30873581
1.30820860
1.30768092
1.30715355
1.30662534
1.30609627
1.30556791
1.30503831
1.30450861
1.30397889
1.30344827
1.30291722
1.30238607
1.30185445
1.30132242
1.30079028
1.30025728
1.29972463
1.29919111
1.29865671
1.29812308
1.29758817
1.29705358
1.29651815
1.29598267
1.29544632
1.29490988
1.29437343
1.29383607
1.29329869
1.29276040
1.29222248
1.29168373
1.29114488
1.29060599
1.29006581
1.28952600
1.28898532
1.28844459
1.28790340
1.28736216
1.28682043
1.28627745
1.28573525
1.28519177
1.28464862
1.28410543
1.28356056
1.28301646
1.28247189
1.28192607
1.28138101
1.28083507
1.28028830
1.27974187
1.27919536
1.27864721
1.27809983
1.27755195
1.27700366
1.27645449
1.27590529
1.27535601
1.27480631
1.27425532
1.27370510
1.27315399
1.27260290
1.27205132
1.27149843
1.27094640
1.27039345
1.26984047
1.26928704
1.26873358
1.26817881
1.26762402
1.26706920
1.26651388
1.26595859
1.26540241
1.26484616
1.26428951
1.26373236
1.26317523
1.26261675
1.26205871
1.26150019
1.26094121
1.26038182
1.25982237
1.25926247
1.25870211
1.25814131
1.25758049
1.25701922
1.25645750
1.25589528
1.25533266
1.25477002
1.25420733
1.25364423
1.25308020
1.25251577
1.25195128
1.25138638
1.25082099
1.25025515
1.24968931
1.24912305
1.24855675
1.24798956
1.24742235
1.24685427
1.24628617
1.24571762
1.24514947
1.24458048
1.24401059
1.24344065
1.24287032
1.24230037
1.24172959
1.24115786
1.24058618
1.24001490
1.23944229
1.23886967
1.23829660
1.23772354
1.23715003
1.23657568
1.23600168
1.23542684
1.23485155
1.23427672
1.23370094
1.23312432
1.23254861
1.23197150
1.23139399
1.23081690
1.23023896
1.22966143
1.22908256
1.22850328
1.22792443
1.22734468
1.22676539
1.22618475
1.22560458
1.22502351
1.22444246
1.22386050
1.22327902
1.22269659
1.22211423
1.22153096
1.22094812
1.22036398
1.21978026
1.21919569
1.21861109
1.21802563
1.21744061
1.21685561
1.21626879
1.21568291
1.21509567
1.21450891
1.21392217
1.21333361
1.21274599
1.21215701
1.21156847
1.21098000
1.21039017
1.20980032
1.20921053
1.20861980
1.20802914
1.20743800
1.20684688
1.20625491
1.20566292
1.20507050
1.20447717
1.20388433
1.20329106
1.20269736
1.20210321
1.20150817
1.20091362
1.20031864
1.19972364
1.19912778
1.19853102
1.19793472
1.19733803
1.19674086
1.19614372
1.19554573
1.19494725
1.19434881
1.19374998
1.19315115
1.19255141
1.19195170
1.19135157
1.19075147
1.19015047
1.18954946
1.18894806
1.18834623
1.18774440
1.18714123
1.18653858
1.18593545
1.18533194
1.18472794
1.18412404
1.18352014
1.18291533
1.18231008
1.18170489
1.18109926
1.18049277
1.17988671
1.17927979
1.17867244
1.17806514
1.17745741
1.17684925
1.17624066
1.17563256
1.17502359
1.17441414
1.17380432
1.17319449
1.17258381
1.17197313
1.17136251
1.17075102
1.17013954
1.16952714
1.16891481
1.16830302
1.16768982
1.16707620
1.16646264
1.16584909
1.16523468
1.16462032
1.16400505
1.16339028
1.16277465
1.16215858
1.16154303
1.16092606
1.16030921
1.15969237
1.15907462
1.15845698
1.15783931
1.15722033
1.15660137
1.15598297
1.15536315
1.15474390
1.15412373
1.15350308
1.15288256
1.15226161
1.15164068
1.15101889
1.15039716
1.14977447
1.14915189
1.14852934
1.14790543
1.14728253
1.14665821
1.14603447
1.14540936
1.14478522
1.14415976
1.14353433
1.14290893
1.14228265
1.14165645
1.14102933
1.14040279
1.13977483
1.13914740
1.13852005
1.13789132
1.13726268
1.13663356
1.13600458
1.13537513
1.13474475
1.13411496
1.13348480
1.13285367
1.13222262
1.13159166
1.13095927
1.13032747
1.12969525
1.12906262
1.12842905
1.12779603
1.12716265
1.12652879
1.12589406
1.12525993
1.12462533
1.12399032
1.12335493
1.12271857
1.12208235
1.12144617
1.12080958
1.12017257
1.11953463
1.11889730
1.11825904
1.11762088
1.11698281
1.11634381
1.11570487
1.11506504
1.11442479
1.11378465
1.11314409
1.11250357
1.11186265
1.11122136
1.11057960
1.10993795
1.10929541
1.10865293
1.10801003
1.10736672
1.10672351
1.10607942
1.10543534
1.10479089
1.10414603
1.10350127
1.10285558
1.10221000
1.10156396
1.10091755
1.10027125
1.09962502
1.09897784
1.09833031
1.09768231
1.09703395
1.09638565
1.09573694
1.09508787
1.09443887
1.09378945
1.09313909
1.09248885
1.09183819
1.09118713
1.09053671
1.08988530
1.08923353
1.08858136
1.08792977
1.08727678
1.08662384
1.08597002
1.08531733
1.08466323
1.08400866
1.08335426
1.08269993
1.08204467
1.08138952
1.08073397
1.08007801
1.07942164
1.07876540
1.07810821
1.07745115
1.07679422
1.07613634
1.07547806
1.07481985
1.07416129
1.07350281
1.07284343
1.07218413
1.07152394
1.07086383
1.07020384
1.06954243
1.06888218
1.06822044
1.06755937
1.06689682
1.06623548
1.06557266
1.06490997
1.06424688
1.06358392
1.06291948
1.06225620
1.06159148
1.06092745
1.06026296
1.05959703
1.05893227
1.05826608
1.05760052
1.05693455
1.05626714
1.05560091
1.05493319
1.05426615
1.05359872
1.05292984
1.05226209
1.05159344
1.05092439
1.05025549
1.04958618
1.04891593
1.04824582
1.04757580
1.04690544
1.04623357
1.04556290
1.04489128
1.04421986
1.04354688
1.04287516
1.04220254
1.04152946
1.04085653
1.04018210
1.03950893
1.03883481
1.03816028
1.03748591
1.03681114
1.03613486
1.03545984
1.03478382
1.03410800
1.03343179
1.03275513
1.03207812
1.03140065
1.03072340
1.03004458
1.02936654
1.02868860
1.02800970
1.02733096
1.02665132
1.02597179
1.02529242
1.02461209
1.02393187
1.02325081
1.02256979
1.02188844
1.02120725
1.02052510
1.01984306
1.01916068
1.01847791
1.01779581
1.01711218
1.01642879
1.01574493
1.01506074
1.01437610
1.01369163
1.01300625
1.01232099
1.01163641
1.01095042
1.01026448
1.00957770
1.00889103
1.00820391
1.00751759
1.00682974
1.00614207
1.00545394
1.00476548
1.00407714
1.00338846
1.00269876
1.00200929
1.00131995
1.00062970
0.99993957
0.99924962
0.99855871
0.99786683
0.99717570
0.99648418
0.99579227
0.99509997
0.99440786
0.99371477
0.99302245
0.99232858
0.99163484
0.99094134
0.99024688
0.98955197
0.98885788
0.98816276
0.98746783
0.98677199
0.98607686
0.98538024
0.98468433
0.98398745
0.98329018
0.98259310
0.98189563
0.98119836
0.98049953
0.97980206
0.97910304
0.97840479
0.97770609
0.97700590
0.97630707
0.97560663
0.97490644
0.97420586
0.97350543
0.97280460
0.97210286
0.97140184
0.97069927
0.96999754
0.96929536
0.96859221
0.96788985
0.96718710
0.96648279
0.96577927
0.96507595
0.96437107
0.96366692
0.96296244
0.96225640
0.96155174
0.96084605
0.96014062
0.95943357
0.95872737
0.95802132
0.95731430
0.95660635
0.95589915
0.95519156
0.95448365
0.95377588
0.95306655
0.95235802
0.95164911
0.95093981
0.95023013
0.94952060
0.94881015
0.94809932
0.94738870
0.94667770
0.94596685
0.94525509
0.94454348
0.94383154
0.94311916
0.94240701
0.94169392
0.94098100
0.94026770
0.93955407
0.93884060
0.93812555
0.93741132
0.93669671
0.93598232
0.93526694
0.93455179
0.93383620
0.93312028
0.93240399
0.93168731
0.93097020
0.93025337
0.92953616
0.92881851
0.92810054
0.92738213
0.92666394
0.92594605
0.92522710
0.92450778
0.92378808
0.92306861
0.92234882
0.92162798
0.92090853
0.92018754
0.91946679
0.91874504
0.91802353
0.91730225
0.91658053
0.91585789
0.91513547
0.91441324
0.91369007
0.91296646
0.91224254
0.91151941
0.91079529
0.91007085
0.90934658
0.90862133
0.90789631
0.90717154
0.90644577
0.90571907
0.90499372
0.90426689
0.90354017
0.90281376
0.90208635
0.90135974
0.90063159
0.89990305
0.89917538
0.89844666
0.89771880
0.89698938
0.89626077
0.89553061
0.89480063
0.89407152
0.89334086
0.89261038
0.89187952
0.89114892
0.89041732
0.88968597
0.88895424
0.88822277
0.88749092
0.88675746
0.88602543
0.88529184
0.88455913
0.88382479
0.88309190
0.88235801
0.88162318
0.88088918
0.88015486
0.87941886
0.87868436
0.87794830
0.87721244
0.87647683
0.87574023
0.87500388
0.87426716
0.87353070
0.87279261
0.87205541
0.87131784
0.87057927
0.86984096
0.86910284
0.86836443
0.86762501
0.86688579
0.86614626
0.86540693
0.86466724
0.86392597
0.86318554
0.86244480
0.86170426
0.86096336
0.86022209
0.85947924
0.85873723
0.85799543
0.85725274
0.85651021
0.85576736
0.85502415
0.85428121
0.85353726
0.85279353
0.85204821
0.85130380
0.85055960
0.84981446
0.84906952
0.84832365
0.84757798
0.84683259
0.84608625
0.84533949
0.84459300
0.84384615
0.84309899
0.84235140
0.84160410
0.84085578
0.84010896
0.83936056
0.83861179
0.83786266
0.83711381
0.83636388
0.83561430
0.83486435
0.83411462
0.83336395
0.83261414
0.83186338
0.83111220
0.83036065
0.82960880
0.82885717
0.82810583
0.82735348
0.82660076
0.82584774
0.82509554
0.82434238
0.82358828
0.82283433
0.82208139
0.82132679
0.82057247
0.81981714
0.81906334
0.81830794
0.81755211
0.81679729
0.81604139
0.81528454
0.81452923
0.81377225
0.81301497
0.81225858
0.81150117
0.81074339
0.80998598
0.80922749
0.80846995
0.80771140
0.80695182
0.80619380
0.80543416
0.80467548
0.80391513
0.80315573
0.80239525
0.80163579
0.80087466
0.80011442
0.79935257
0.79859161
0.79782970
0.79706869
0.79630600
0.79554427
0.79478159
0.79401915
0.79325568
0.79249252
0.79172901
0.79096580
0.79020223
0.78943764
0.78867336
0.78790938
0.78714372
0.78637897
0.78561326
0.78484786
0.78408270
0.78331592
0.78255005
0.78178390
0.78101665
0.78025044
0.77948315
0.77871617
0.77794824
0.77718055
0.77641250
0.77564477
0.77487534
0.77410690
0.77333811
0.77256896
0.77179878
0.77102959
0.77025999
0.76949009
0.76871984
0.76794856
0.76717754
0.76640690
0.76563584
0.76486450
0.76409273
0.76332068
0.76254888
0.76177545
0.76100294
0.76023009
0.75945688
0.75868399
0.75791008
0.75713649
0.75636255
0.75558825
0.75481361
0.75403929
0.75326462
0.75248891
0.75171415
0.75093842
0.75016235
0.74938653
0.74860975
0.74783330
0.74705643
0.74627989
0.74550238
0.74472514
0.74394694
0.74316899
0.74239138
0.74161343
0.74083512
0.74005577
0.73927683
0.73849748
0.73771839
0.73693833
0.73615929
0.73537922
0.73459880
0.73381796
0.73303685
0.73225538
0.73147487
0.73069339
0.72991157
0.72912932
0.72834811
0.72756524
0.72678264
0.72599976
0.72521716
0.72443420
0.72365021
0.72286726
0.72208326
0.72129823
0.72051361
0.71972989
0.71894519
0.71815946
0.71737477
0.71658904
0.71580428
0.71501785
0.71423108
0.71344598
0.71265851
0.71187272
0.71108526
0.71029738
0.70951055
0.70872275
0.70793523
0.70714666
0.70635915
0.70556996
0.70478176
0.70399251
0.70320362
0.70241368
0.70162480
0.70083418
0.70004461
0.69925399
0.69846366
0.69767306
0.69688211
0.69609145
0.69529982
0.69450847
0.69371615
0.69292482
0.69213252
0.69133980
0.69054744
0.68975411
0.68896106
0.68816838
0.68737402
0.68658065
0.68578694
0.68499218
0.68419850
0.68340376
0.68260932
0.68181390
0.68101885
0.68022345
0.67942701
0.67863157
0.67783586
0.67703973
0.67624334
0.67544590
0.67464946
0.67385204
0.67305493
0.67225747
0.67145903
0.67066090
0.66986313
0.66906502
0.66826658
0.66746779
0.66666802
0.66586856
0.66506939
0.66426932
0.66346948
0.66267008
0.66186964
0.66106885
0.66026837
0.65946762
0.65866646
0.65786503
0.65706326
0.65626181
0.65545936
0.65465723
0.65385476
0.65305202
0.65224959
0.65144610
0.65064299
0.64983955
0.64903577
0.64823173
0.64742792
0.64662320
0.64581872
0.64501397
0.64420889
0.64340347
0.64259772
0.64179300
0.64098729
0.64018125
0.63937480
0.63856808
0.63776176
0.63695575
0.63614868
0.63534134
0.63453360
0.63372553
0.63291857
0.63211062
0.63130153
0.63049284
0.62968381
0.62887591
0.62806694
0.62725691
0.62644800
0.62563803
0.62482845
0.62401781
0.62320822
0.62239691
0.62158600
0.62077614
0.61996455
0.61915257
0.61834178
0.61752986
0.61671833
0.61590582
0.61509289
0.61428110
0.61346832
0.61265587
0.61184235
0.61102849
0.61021504
0.60940126
0.60858787
0.60777269
0.60695938
0.60614427
0.60532956
0.60451445
0.60369981
0.60288337
0.60206874
0.60125238
0.60043642
0.59962005
0.59880410
0.59798641
0.59717053
0.59635366
0.59553564
0.59471877
0.59390083
0.59308338
0.59226552
0.59144659
0.59062881
0.58980922
0.58899079
0.58817202
0.58735219
0.58653343
0.58571442
0.58489434
0.58407393
0.58325386
0.58243354
0.58161289
0.58079183
0.57997127
0.57915030
0.57832833
0.57750671
0.57668550
0.57586322
0.57504069
0.57421850
0.57339599
0.57257315
0.57175072
0.57092723
0.57010340
0.56928000
0.56845627
0.56763221
0.56680858
0.56598462
0.56515951
0.56433414
0.56350920
0.56268461
0.56185902
0.56103386
0.56020829
0.55938240
0.55855625
0.55772971
0.55690360
0.55607648
0.55524971
0.55442262
0.55359528
0.55276829
0.55194022
0.55111259
0.55028463
0.54945634
0.54862773
0.54779880
0.54697022
0.54614064
0.54531149
0.54448201
0.54365366
0.54282353
0.54199301
0.54116300
0.54033260
0.53950194
0.53867088
0.53783958
0.53700940
0.53617813
0.53534662
0.53451471
0.53368248
0.53285069
0.53201857
0.53118613
0.53035261
0.52951952
0.52868765
0.52785392
0.52702064
0.52618626
0.52535302
0.52451877
0.52368497
0.52285077
0.52201632
0.52118078
0.52034638
0.51951097
0.51867593
0.51784057
0.51700496
0.51616819
0.51533263
0.51449606
0.51366056
0.51282335
0.51198575
0.51114936
0.51031189
0.50947563
0.50863752
0.50779908
0.50696179
0.50612279
0.50528487
0.50444593
0.50360813
0.50276855
0.50193020
0.50108998
0.50025092
0.49941083
0.49857190
0.49773111
0.49689162
0.49605174
0.49520999
0.49437024
0.49352871
0.49268755
0.49184686
0.49100429
0.49016296
0.48932054
0.48847935
0.48763707
0.48679447
0.48595156
0.48510981
0.48426548
0.48342317
0.48257969
0.48173597
0.48089193
0.48004828
0.47920510
0.47836012
0.47751560
0.47667147
0.47582702
0.47498077
0.47413569
0.47329108
0.47244537
0.47159864
0.47075324
0.46990737
0.46906119
0.46821547
0.46736866
0.46652074
0.46567409
0.46482703
0.46397975
0.46313215
0.46228494
0.46143671
0.46058895
0.45974080
0.45889163
0.45804286
0.45719385
0.45634523
0.45549638
0.45464714
0.45379759
0.45294772
0.45209762
0.45124792
0.45039711
0.44954678
0.44869614
0.44784519
0.44699472
0.44614314
0.44529204
0.44444063
0.44358883
0.44273680
0.44188525
0.44103330
0.44018113
0.43932785
0.43847497
0.43762186
0.43676916
0.43591543
0.43506290
0.43420926
0.43335540
0.43250114
0.43164657
0.43079177
0.42993818
0.42908347
0.42822846
0.42737314
0.42651750
0.42566316
0.42480691
0.42395114
0.42309507
0.42223941
0.42138271
0.42052651
0.41966992
0.41881310
0.41795598
0.41709926
0.41624151
0.41538338
0.41452654
0.41366867
0.41281041
0.41195265
0.41109385
0.41023467
0.40937679
0.40851707
0.40765857
0.40679896
0.40593904
0.40508042
0.40421989
0.40336058
0.40250024
0.40164039
0.40077944
0.39991898
0.39905813
0.39819787
0.39733569
0.39647473
0.39561274
0.39475198
0.39388938
0.39302800
0.39216479
0.39130280
0.39043978
0.38957800
0.38871510
0.38785189
0.38698838
0.38612464
0.38526133
0.38439845
0.38353380
0.38266957
0.38180577
0.38094093
0.38007661
0.37921198
0.37834704
0.37748172
0.37661699
0.37575032
0.37488572
0.37402008
