corrn_curve_cubic
1.38473507
1.38475206
1.38476727
1.38478066
1.38479225
1.38480203
1.38481001
1.38481619
1.38482058
1.38482317
1.38482398
1.38482299
1.38482022
1.38481566
1.38480932
1.38480120
1.38479131
1.38477964
1.38476621
1.38475100
1.38473403
1.38471528
1.38469481
1.38467256
1.38464855
1.38462277
1.38459524
1.38456599
1.38453496
1.38450221
1.38446772
1.38443149
1.38439351
1.38435379
1.38431239
1.38426919
1.38422433
1.38417773
1.38412933
1.38407927
1.38402749
1.38397406
1.38391883
1.38386188
1.38380329
1.38374299
1.38368098
1.38361717
1.38355183
1.38348469
1.38341585
1.38334540
1.38327316
1.38319931
1.38312377
1.38304655
1.38296762
1.38288701
1.38280470
1.38272071
1.38263529
1.38254793
1.38245902
1.38236843
1.38227604
1.38218224
1.38208663
1.38198950
1.38189055
1.38179008
1.38168796
1.38158417
1.38147872
1.38137163
1.38126287
1.38115262
1.38104055
1.38092701
1.38081182
1.38069499
1.38057634
1.38045639
1.38033465
1.38021125
1.38008623
1.37995975
1.37983183
1.37970191
1.37957056
1.37943758
1.37930298
1.37916695
1.37902911
1.37888986
1.37874900
1.37860642
1.37846233
1.37831675
1.37816935
1.37802067
1.37787028
1.37771840
1.37756471
1.37740964
1.37725297
1.37709460
1.37693488
1.37677357
1.37661080
1.37644632
1.37628015
1.37611263
1.37594355
1.37577301
1.37560077
1.37542696
1.37525171
1.37507491
1.37489665
1.37471684
1.37453548
1.37435228
1.37416794
1.37398190
1.37379444
1.37360558
1.37341502
1.37322307
1.37302956
1.37283453
1.37263794
1.37243996
1.37224030
1.37203912
1.37183653
1.37163257
1.37142693
1.37121992
1.37101138
1.37080148
1.37058988
1.37037694
1.37016279
1.36994682
1.36972949
1.36951066
1.36929031
1.36906846
1.36884510
1.36862040
1.36839422
1.36816652
1.36793732
1.36770680
1.36747496
1.36724162
1.36700663
1.36677016
1.36653237
1.36629310
1.36605270
1.36581047
1.36556693
1.36532193
1.36507544
1.36482785
1.36457844
1.36432773
1.36407556
1.36382194
1.36356720
1.36331083
1.36305300
1.36279411
1.36253337
1.36227138
1.36200794
1.36174322
1.36147709
1.36120931
1.36094046
1.36066998
1.36039828
1.36012533
1.35985054
1.35957493
1.35929750
1.35901862
1.35873874
1.35845721
1.35817427
1.35789033
1.35760454
1.35731796
1.35702934
1.35673995
1.35644892
1.35615672
1.35586267
1.35556785
1.35527119
1.35497357
1.35467436
1.35437417
1.35407213
1.35376916
1.35346433
1.35315880
1.35285143
1.35254313
1.35223298
1.35192215
1.35160968
1.35129562
1.35098065
1.35066405
1.35034633
1.35002747
1.34970677
1.34938517
1.34906244
1.34873786
1.34841241
1.34808560
1.34775697
1.34742769
1.34709681
1.34676458
1.34643123
1.34609655
1.34576077
1.34542315
1.34508466
1.34474485
1.34440394
1.34406121
1.34371762
1.34337271
1.34302646
1.34267864
1.34232999
1.34198002
1.34162872
1.34127637
1.34092242
1.34056716
1.34021085
1.33985322
1.33949452
1.33913454
1.33877322
1.33841062
1.33804669
1.33768175
1.33731496
1.33694739
1.33657880
1.33620864
1.33583748
1.33546501
1.33509152
1.33471647
1.33434040
1.33396303
1.33358440
1.33320448
1.33282357
1.33244109
1.33205760
1.33167315
1.33128710
1.33090010
1.33051181
1.33012227
1.32973144
1.32933994
1.32894688
1.32855255
1.32815697
1.32776043
1.32736263
1.32696327
1.32656297
1.32616202
1.32575952
1.32535575
1.32495076
1.32454452
1.32413701
1.32372919
1.32331923
1.32290863
1.32249651
1.32208313
1.32166946
1.32125393
1.32083720
1.32041922
1.32000064
1.31958053
1.31915919
1.31873725
1.31831380
1.31788881
1.31746355
1.31703646
1.31660845
1.31617959
1.31574917
1.31531757
1.31488507
1.31445137
1.31401650
1.31358073
1.31314343
1.31270560
1.31226625
1.31182537
1.31138431
1.31094139
1.31049792
1.31005297
1.30960717
1.30915986
1.30871167
1.30826268
1.30781214
1.30736080
1.30690791
1.30645455
1.30599970
1.30554400
1.30508748
1.30462910
1.30417027
1.30370991
1.30324876
1.30278645
1.30232333
1.30185903
1.30139290
1.30092670
1.30045863
1.29999009
1.29952077
1.29904926
1.29857766
1.29810492
1.29763035
1.29715570
1.29667955
1.29620194
1.29572389
1.29524505
1.29476405
1.29428299
1.29380077
1.29331747
1.29283267
1.29234713
1.29186081
1.29137341
1.29088414
1.29039485
1.28990408
1.28941261
1.28891999
1.28842551
1.28793111
1.28743518
1.28693854
1.28644079
1.28594234
1.28544201
1.28494098
1.28443924
1.28393638
1.28343285
1.28292784
1.28242210
1.28191532
1.28140741
1.28089886
1.28038840
1.27987768
1.27936586
1.27885296
1.27833902
1.27782437
1.27730866
1.27679187
1.27627402
1.27575551
1.27523593
1.27471529
1.27419355
1.27367080
1.27314739
1.27262329
1.27209819
1.27157158
1.27104397
1.27051567
1.26998637
1.26945598
1.26892455
1.26839249
1.26785943
1.26732571
1.26679053
1.26625474
1.26571749
1.26517963
1.26464074
1.26410161
1.26356109
1.26301911
1.26247649
1.26193289
1.26138908
1.26084386
1.26029716
1.25974991
1.25920246
1.25865314
1.25810323
1.25755232
1.25700083
1.25644833
1.25589444
1.25534033
1.25478482
1.25422831
1.25367167
1.25311356
1.25255406
1.25199488
1.25143379
1.25087175
1.25030955
1.24974597
1.24918224
1.24861665
1.24805012
1.24748345
1.24691535
1.24634717
1.24577712
1.24520698
1.24463543
1.24406335
1.24348986
1.24291629
1.24234127
1.24176577
1.24118886
1.24061184
1.24003301
1.23945407
1.23887377
1.23829293
1.23771072
1.23712842
1.23654563
1.23596051
1.23537583
1.23478928
1.23420270
1.23361564
1.23302626
1.23243732
1.23184651
1.23125565
1.23066437
1.23007122
1.22947755
1.22888347
1.22828795
1.22769201
1.22709510
1.22649773
1.22589902
1.22529981
1.22469968
1.22409815
1.22349666
1.22289425
1.22229092
1.22168669
1.22108106
1.22047548
1.21986899
1.21926203
1.21865373
1.21804404
1.21743437
1.21682384
1.21621237
1.21560048
1.21498726
1.21437310
1.21375853
1.21314311
1.21252725
1.21191000
1.21129236
1.21067383
1.21005491
1.20943462
1.20881388
1.20819232
1.20756988
1.20694700
1.20632232
1.20569774
1.20507225
1.20444593
1.20381869
1.20319113
1.20256316
1.20193382
1.20130362
1.20067306
1.20004163
1.19940890
1.19877622
1.19814222
1.19750737
1.19687217
1.19623612
1.19559922
1.19496147
1.19432384
1.19368490
1.19304507
1.19240445
1.19176345
1.19112115
1.19047846
1.18983546
1.18919115
1.18854648
1.18790046
1.18725412
1.18660798
1.18595998
1.18531116
1.18466203
1.18401254
1.18336176
1.18271068
1.18205826
1.18140601
1.18075248
1.18009813
1.17944396
1.17878794
1.17813168
1.17747508
1.17681715
1.17615899
1.17550044
1.17484015
1.17417952
1.17351916
1.17285693
1.17219497
1.17153168
1.17086755
1.17020320
1.16953806
1.16887261
1.16820590
1.16753893
1.16687058
1.16620204
1.16553320
1.16486255
1.16419268
1.16352096
1.16284954
1.16217632
1.16150383
1.16082960
1.16015508
1.15948028
1.15880422
1.15812794
1.15745035
1.15677307
1.15609395
1.15541510
1.15473604
1.15405518
1.15337410
1.15269222
1.15201018
1.15132734
1.15064319
1.14995940
1.14927490
1.14858906
1.14790302
1.14721678
1.14652870
1.14584098
1.14515252
1.14446332
1.14377283
1.14308265
1.14239180
1.14170015
1.14100728
1.14031478
1.13962150
1.13892749
1.13823282
1.13753680
1.13684067
1.13614432
1.13544725
1.13474947
1.13405040
1.13335173
1.13265179
1.13195170
1.13125146
1.13054995
1.12984823
1.12914529
1.12844165
1.12773786
1.12703337
1.12632869
1.12562331
1.12491728
1.12421050
1.12350359
1.12279547
1.12208717
1.12137817
1.12066848
1.11995867
1.11924766
1.11853642
1.11782454
1.11711198
1.11639932
1.11568539
1.11497136
1.11425659
1.11354120
1.11282570
1.11211006
1.11139316
1.11067564
1.10995740
1.10923854
1.10851953
1.10779986
1.10707958
1.10635915
1.10563807
1.10491573
1.10419332
1.10347024
1.10274651
1.10202330
1.10129878
1.10057366
1.09984789
1.09912259
1.09839552
1.09766833
1.09693996
1.09621265
1.09548358
1.09475380
1.09402403
1.09329415
1.09256304
1.09183188
1.09110008
1.09036765
1.08963459
1.08890148
1.08816715
1.08743278
1.08669838
1.08596275
1.08522649
1.08449015
1.08375324
1.08301625
1.08227810
1.08153987
1.08080047
1.08006100
1.07932152
1.07858027
1.07784016
1.07709823
1.07635689
1.07561374
1.07487179
1.07412802
1.07338426
1.07263988
1.07189551
1.07114932
1.07040430
1.06965752
1.06891135
1.06816453
1.06741595
1.06666855
1.06591940
1.06517081
1.06442164
1.06367070
1.06292096
1.06216940
1.06141849
1.06066699
1.05991374
1.05916163
1.05840838
1.05765456
1.05690077
1.05614641
1.05539085
1.05463533
1.05387980
1.05312376
1.05236591
1.05160929
1.05085148
1.05009378
1.04933421
1.04857595
1.04781656
1.04705655
1.04629660
1.04553484
1.04477440
1.04401277
1.04325059
1.04248849
1.04172582
1.04096136
1.04019822
1.03943384
1.03866961
1.03790483
1.03713944
1.03637356
1.03560709
1.03484076
1.03407257
1.03330516
1.03253778
1.03176924
1.03100079
1.03023123
1.02946172
1.02869230
1.02792172
1.02715118
1.02637961
1.02560801
1.02483596
1.02406401
1.02329090
1.02251785
1.02174434
1.02097030
1.02019697
1.01942184
1.01864689
1.01787137
1.01709539
1.01631884
1.01554242
1.01476491
1.01398747
1.01321074
1.01243235
1.01165397
1.01087457
1.01009525
1.00931536
1.00853632
1.00775550
1.00697482
1.00619358
1.00541191
1.00463033
1.00384831
1.00306510
1.00228210
1.00149920
1.00071523
0.99993136
0.99914765
0.99836280
0.99757682
0.99679166
0.99600602
0.99521989
0.99443329
0.99364687
0.99285931
0.99207259
0.99128408
0.99049569
0.98970755
0.98891828
0.98812848
0.98733958
0.98654950
0.98575961
0.98496866
0.98417850
0.98338663
0.98259554
0.98180334
0.98101068
0.98021822
0.97942530
0.97863259
0.97783810
0.97704514
0.97625041
0.97545655
0.97466218
0.97386610
0.97307156
0.97227518
0.97147909
0.97068255
0.96988617
0.96908935
0.96829149
0.96749445
0.96669565
0.96589780
0.96509946
0.96430001
0.96350147
0.96270249
0.96190174
0.96110191
0.96030231
0.95950095
0.95870043
0.95789956
0.95709692
0.95629587
0.95549366
0.95469177
0.95388805
0.95308532
0.95228278
0.95147915
0.95067450
0.94987071
0.94906652
0.94826198
0.94745763
0.94665153
0.94584637
0.94504080
0.94423483
0.94342845
0.94262228
0.94181510
0.94100751
0.94020021
0.93939250
0.93858501
0.93777651
0.93696822
0.93615961
0.93535054
0.93454175
0.93373196
0.93292240
0.93211244
0.93130217
0.93049212
0.92968033
0.92886951
0.92805831
0.92724741
0.92643545
0.92562379
0.92481169
0.92399927
0.92318648
0.92237331
0.92155970
0.92074647
0.91993287
0.91911883
0.91830449
0.91748971
0.91667525
0.91586118
0.91504598
0.91423043
0.91341451
0.91259891
0.91178303
0.91096602
0.91015066
0.90933363
0.90851693
0.90769919
0.90688178
0.90606471
0.90524722
0.90442875
0.90361063
0.90279278
0.90197396
0.90115472
0.90033521
0.89951667
0.89869709
0.89787724
0.89705767
0.89623707
0.89541682
0.89459694
0.89377601
0.89295413
0.89213386
0.89131200
0.89049037
0.88966917
0.88884695
0.88802572
0.88720283
0.88637962
0.88555748
0.88473425
0.88391209
0.88308827
0.88226547
0.88144101
0.88061687
0.87979380
0.87896909
0.87814469
0.87731998
0.87649565
0.87567030
0.87484535
0.87402009
0.87319521
0.87237003
0.87154314
0.87071797
0.86989117
0.86906546
0.86823805
0.86741237
0.86658569
0.86575807
0.86493149
0.86410469
0.86327610
0.86244934
0.86162094
0.86079288
0.85996523
0.85913658
0.85830835
0.85747983
0.85665173
0.85582192
0.85499324
0.85416428
0.85333432
0.85250479
0.85167561
0.85084622
0.85001585
0.84918583
0.84835560
0.84752573
0.84669559
0.84586382
0.84503312
0.84420223
0.84337170
0.84254090
0.84170983
0.84087714
0.84004553
0.83921430
0.83838222
0.83755046
0.83671850
0.83588628
0.83505451
0.83422176
0.83338940
0.83255541
0.83172260
0.83089018
0.83005686
0.82922392
0.82839009
0.82755665
0.82672367
0.82588979
0.82505560
0.82422187
0.82338789
0.82255374
0.82171927
0.82088527
0.82005031
0.81921719
0.81838246
0.81754750
0.81671229
0.81587756
0.81504180
0.81420660
0.81337116
0.81253613
0.81170022
0.81086545
0.81002980
0.80919384
0.80835765
0.80752131
0.80668538
0.80584996
0.80501358
0.80417698
0.80334022
0.80250455
0.80166800
0.80083058
0.79999351
0.79915775
0.79832032
0.79748340
0.79664554
0.79580956
0.79497199
0.79413414
0.79329759
0.79246004
0.79162163
0.79078510
0.78994692
0.78910861
0.78827146
0.78743339
0.78659511
0.78575742
0.78491874
0.78408130
0.78324294
0.78240366
0.78156628
0.78072732
0.77988962
0.77905027
0.77821218
0.77737310
0.77653535
0.77569595
0.77485775
0.77401797
0.77317939
0.77233997
0.77150174
0.77066187
0.76982327
0.76898383
0.76814487
0.76730499
0.76646566
0.76562615
0.76478719
0.76394806
0.76310802
0.76226853
0.76142959
0.76058902
0.75974967
0.75890948
0.75806985
0.75723072
0.75639002
0.75555054
0.75471097
0.75387043
0.75303125
0.75219111
0.75135154
0.75051114
0.74967124
0.74883118
0.74799170
0.74715059
0.74631078
0.74547082
0.74463070
0.74378969
0.74295000
0.74211008
0.74127008
0.74042992
0.73958889
0.73874836
0.73790849
0.73706840
0.73622824
0.73538786
0.73454740
0.73370747
0.73286599
0.73202577
0.73118540
0.73034490
0.72950499
0.72866421
0.72782402
0.72698370
0.72614325
0.72530265
0.72446266
0.72362254
0.72278155
0.72194183
0.72110131
0.72026066
0.71942055
0.71857965
0.71773936
0.71689886
0.71605899
0.71521832
0.71437819
0.71353728
0.71269691
0.71185716
0.71101729
0.71017730
0.70933645
0.70849630
0.70765597
0.70681618
0.70597561
0.70513640
0.70429635
0.70345618
0.70261583
0.70177545
0.70093496
0.70009576
0.69925579
0.69841572
0.69757546
0.69673658
0.69589620
0.69505637
0.69421652
0.69337724
0.69253785
0.69169763
0.69085879
0.69001911
0.68917860
0.68833881
0.68750025
0.68666094
0.68582079
0.68498203
0.68414244
0.68330417
0.68246440
0.68162455
0.68078675
0.67994672
0.67910876
0.67826930
0.67742969
0.67659147
0.67575251
0.67491413
0.67407493
0.67323714
0.67239786
0.67155991
0.67072114
0.66988304
0.66904412
0.66820661
0.66736754
0.66652989
0.66569143
0.66485356
0.66401569
0.66317776
0.66234043
0.66150237
0.66066490
0.65982670
0.65898985
0.65815227
0.65731455
0.65647752
0.65563975
0.65480259
0.65396612
0.65312817
0.65229158
0.65145494
0.65061749
0.64978148
0.64894467
0.64810848
0.64727156
0.64643534
0.64559907
0.64476200
0.64392630
0.64309062
0.64225483
0.64141906
0.64058250
0.63974731
0.63891141
0.63807614
0.63724082
0.63640479
0.63556939
0.63473470
0.63389997
0.63306520
0.63223040
0.63139488
0.63056001
0.62972577
0.62889090
0.62805659
0.62722307
0.62638877
0.62555445
0.62472076
0.62388713
0.62305339
0.62221969
0.62138598
0.62055290
0.61971913
0.61888601
0.61805287
0.61721978
0.61638734
0.61555413
0.61472165
0.61388916
0.61305664
0.61222418
0.61139231
0.61055982
0.60972791
0.60889606
0.60806420
0.60723233
0.60640045
0.60556998
0.60473882
0.60390766
0.60307641
0.60224523
0.60141480
0.60058502
0.59975450
0.59892405
0.59809352
0.59726299
0.59643395
0.59560423
0.59477370
0.59394392
0.59311413
0.59228584
0.59145681
0.59062704
0.58979877
0.58896975
0.58814149
0.58731249
0.58648491
0.58565593
0.58482771
0.58400091
0.58317271
0.58234444
0.58151775
0.58069026
0.57986353
0.57903615
0.57820870
0.57738277
0.57655618
0.57573028
0.57490366
0.57407705
0.57325122
0.57242540
0.57160036
0.57077385
0.56994960
0.56912388
0.56829894
0.56747394
0.56664980
0.56582419
0.56500078
0.56417597
0.56335195
0.56252788
0.56170459
0.56087992
0.56005744
0.55923433
0.55841043
0.55758806
0.55676498
0.55594276
0.55512051
0.55429755
0.55347611
0.55265324
0.55183189
0.55101058
0.55018858
0.54936803
0.54854760
0.54772648
0.54690540
0.54608504
0.54526480
0.54444461
0.54362440
0.54280505
0.54198568
0.54116570
0.54034643
0.53952797
0.53870882
0.53788979
0.53707149
0.53625325
0.53543506
0.53461768
0.53379961
0.53298161
0.53216440
0.53134726
0.53053018
0.52971391
0.52889770
0.52808074
0.52726392
0.52644790
0.52563263
0.52481675
0.52400168
0.52318661
0.52237160
0.52155675
0.52074188
0.51992784
0.51911320
0.51829930
0.51748547
0.51667180
0.51585886
0.51504527
0.51423249
0.51341979
0.51260717
0.51179463
0.51098217
0.51017046
0.50935816
0.50854669
0.50773530
0.50692540
0.50611418
0.50530297
0.50449266
0.50368237
0.50287224
0.50206212
0.50125217
0.50044371
0.49963461
0.49882567
0.49801675
0.49720792
0.49639992
0.49559202
0.49478422
0.49397577
0.49316816
0.49236213
0.49155471
0.49074814
0.48994092
0.48913521
0.48832894
0.48752350
0.48671810
0.48591287
0.48510701
0.48430266
0.48349775
0.48269361
0.48188957
0.48108572
0.48028117
0.47947820
0.47867467
0.47787259
0.47706929
0.47626603
0.47546435
0.47466205
0.47386135
0.47305928
0.47225733
0.47145689
0.47065525
0.46985505
0.46905430
0.46825508
0.46745458
0.46665567
0.46585541
0.46505667
0.46425739
0.46345963
0.46266053
0.46186309
0.46106571
0.46026699
0.45947060
0.45867294
0.45787607
0.45708006
0.45628271
0.45548697
0.45469062
0.45389588
0.45310053
0.45230532
0.45151024
0.45071669
0.44992115
0.44912795
0.44833407
0.44754041
0.44674689
0.44595417
0.44516232
0.44436922
0.44357699
0.44278556
0.44199428
0.44120175
0.44041076
0.43962064
0.43882994
0.43803872
0.43724919
0.43645966
0.43567028
0.43488178
0.43409270
0.43330304
0.43251499
0.43172702
0.43093928
0.43015169
0.42936491
0.42857763
0.42779123
0.42700492
0.42621811
0.42543211
0.42464634
0.42386139
0.42307667
0.42229204
0.42150757
0.42072327
0.41993919
0.41915594
0.41837212
0.41758920
0.41680644
0.41602384
0.41524214
0.41445988
0.41367852
0.41289732
0.41211622
0.41133536
0.41055540
0.40977554
0.40899592
0.40821575
0.40743641
0.40665731
0.40587905
0.40510030
0.40432311
0.40354537
0.40276788
0.40199049
0.40121329
0.40043633
0.39966093
0.39888499
0.39810923
0.39733366
0.39655826
0.39578450
0.39500947
0.39423535
0.39346142
0.39268832
0.39191476
0.39114211
0.39036958
0.38959730
0.38882522
0.38805398
0.38728227
0.38651069
0.38574074
0.38497034
0.38420005
0.38343069
0.38266086
0.38189116
0.38112310
0.38035387
0.37958620
0.37881801
0.37805002
0.37728367
0.37651607
0.37575005
0.37498358
0.37421803
0.37345196
0.37268682
0.37192181
0.37115779
0.37039254
0.36962886
0.36886474
0.36810220
0.36733849
0.36657636
0.36581308
0.36505136
0.36428922
0.36352864
0.36276756
0.36200669
0.36124604
0.36048567
0.35972616
0.35896750
0.35820778
0.35744891
0.35669091
0.35593248
0.35517498
0.35441770
0.35366064
0.35290372
0.35214782
0.35139071
0.35063588
0.34988064
