corrn_curve_linear
1.62792354
1.62708588
1.62624706
1.62540940
1.62457058
1.62373298
1.62289531
1.62205771
1.62122005
1.62038238
1.61954593
1.61870833
1.61787188
1.61703422
1.61619777
1.61536131
1.61452486
1.61368841
1.61285312
1.61201667
1.61118143
1.61034498
1.60951089
1.60867560
1.60784036
1.60700506
1.60616976
1.60533568
1.60450044
1.60366636
1.60283227
1.60199819
1.60116410
1.60033002
1.59949709
1.59866300
1.59783013
1.59699726
1.59616317
1.59533024
1.59449737
1.59366565
1.59283272
1.59199985
1.59116813
1.59033641
1.58950469
1.58867176
1.58784125
1.58700953
1.58617782
1.58534731
1.58451559
1.58368502
1.58285452
1.58202401
1.58119345
1.58036294
1.57953238
1.57870187
1.57787373
1.57704316
1.57621381
1.57538446
1.57455395
1.57372581
1.57289646
1.57206832
1.57123897
1.57041077
1.56958263
1.56875449
1.56792628
1.56709815
1.56627001
1.56544302
1.56461482
1.56378789
1.56296090
1.56213392
1.56130578
1.56047994
1.55965301
1.55882603
1.55799904
1.55717327
1.55634864
1.55552166
1.55469588
1.55387011
1.55304427
1.55221965
1.55139388
1.55056926
1.54974470
1.54891947
1.54809485
1.54727083
1.54644566
1.54562226
1.54479824
1.54397483
1.54315021
1.54232680
1.54150333
1.54067932
1.53985652
1.53903365
1.53821146
1.53738860
1.53656519
1.53574293
1.53492074
1.53409909
1.53327683
1.53245458
1.53163293
1.53081134
1.52999024
1.52916919
1.52834815
1.52752589
1.52670546
1.52588442
1.52506392
1.52424409
1.52342359
1.52260376
1.52178387
1.52096404
1.52014415
1.51932487
1.51850498
1.51768515
1.51686587
1.51604719
1.51522791
1.51440923
1.51359055
1.51277248
1.51195375
1.51113568
1.51031876
1.50950069
1.50868316
1.50786570
1.50704818
1.50623071
1.50541319
1.50459627
1.50377941
1.50296250
1.50214558
1.50132927
1.50051356
1.49969780
1.49888149
1.49806518
1.49724947
1.49643377
1.49561922
1.49480351
1.49398835
1.49317325
1.49235810
1.49154415
1.49072905
1.48991450
1.48909995
1.48828546
1.48747206
1.48665811
1.48584417
1.48503144
1.48421749
1.48340415
1.48259081
1.48177802
1.48096529
1.48015195
1.47933976
1.47852697
1.47771485
1.47690327
1.47609047
1.47527950
1.47446737
1.47365519
1.47284422
1.47203264
1.47122106
1.47041069
1.46959911
1.46878929
1.46797771
1.46716795
1.46635752
1.46554776
1.46473679
1.46392758
1.46311715
1.46230794
1.46149818
1.46068957
1.45987975
1.45907114
1.45826132
1.45745332
1.45664411
1.45583611
1.45502689
1.45421950
1.45341144
1.45260283
1.45179544
1.45098738
1.45017998
1.44937313
1.44856513
1.44775829
1.44695205
1.44614459
1.44533835
1.44453211
1.44372471
1.44291908
1.44211284
1.44130660
1.44050090
1.43969527
1.43889024
1.43808400
1.43727891
1.43647388
1.43566940
1.43486376
1.43405928
1.43325480
1.43245032
1.43164529
1.43084141
1.43003754
1.42923366
1.42843039
1.42762652
1.42682264
1.42601937
1.42521610
1.42441338
1.42361072
1.42280799
1.42200533
1.42120261
1.42040055
1.41959728
1.41879517
1.41799366
1.41719154
1.41639009
1.41558858
1.41478768
1.41398617
1.41318527
1.41238430
1.41158340
1.41078250
1.40998220
1.40918130
1.40838094
1.40758125
1.40678089
1.40598120
1.40518145
1.40438176
1.40358201
1.40278347
1.40198433
1.40118518
1.40038604
1.39958750
1.39878897
1.39798982
1.39719128
1.39639396
1.39559603
1.39479804
1.39400011
1.39320218
1.39240418
1.39160801
1.39081008
1.39001330
1.38921598
1.38841859
1.38762303
1.38682625
1.38602953
1.38523275
1.38443719
1.38364102
1.38284485
1.38204983
1.38125426
1.38045809
1.37966368
1.37886811
1.37807309
1.37727874
1.37648372
1.37568876
1.37489435
1.37409994
1.37330559
1.37251178
1.37171737
1.37092417
1.37013036
1.36933595
1.36854336
1.36774955
1.36695690
1.36616370
1.36537111
1.36457791
1.36378525
1.36299327
1.36220061
1.36140863
1.36061598
1.35982453
1.35903255
1.35824111
1.35745028
1.35665823
1.35586739
1.35507595
1.35428512
1.35349429
1.35270406
1.35191377
1.35112233
1.35033271
1.34954188
1.34875220
1.34796312
1.34717229
1.34638322
1.34559414
1.34480391
1.34401545
1.34322637
1.34243675
1.34164828
1.34086036
1.34007074
1.33928288
1.33849496
1.33770710
1.33691863
1.33613077
1.33534345
1.33455620
1.33376773
1.33298102
1.33219371
1.33140706
1.33062035
1.32983243
1.32904639
1.32825968
1.32747358
1.32668747
1.32590198
1.32511527
1.32432917
1.32354367
1.32275812
1.32197323
1.32118773
1.32040278
1.31961789
1.31883295
1.31804866
1.31726311
1.31647882
1.31569448
1.31491014
1.31412586
1.31334212
1.31255838
1.31177465
1.31099091
1.31020778
1.30942465
1.30864152
1.30785833
1.30707520
1.30629268
1.30551070
1.30472879
1.30394620
1.30316368
1.30238170
1.30159979
1.30081781
1.30003583
1.29925446
1.29847315
1.29769239
1.29691102
1.29613025
1.29534888
1.29456812
1.29378736
1.29300774
1.29222759
1.29144682
1.29066660
1.28988645
1.28910744
1.28832789
1.28754767
1.28676812
1.28598973
1.28521011
1.28443111
1.28365210
1.28287371
1.28209531
1.28131636
1.28053851
1.27976011
1.27898172
1.27820453
1.27742668
1.27664828
1.27587170
1.27509385
1.27431606
1.27353942
1.27276224
1.27198620
1.27120896
1.27043177
1.26965574
1.26887910
1.26810368
1.26732704
1.26655161
1.26577558
1.26500015
1.26422412
1.26344930
1.26267381
1.26189900
1.26112357
1.26034930
1.25957387
1.25879960
1.25802478
1.25725051
1.25647569
1.25570202
1.25492896
1.25415408
1.25338102
1.25260675
1.25183369
1.25106123
1.25028696
1.24951451
1.24874084
1.24796833
1.24719648
1.24642342
1.24565091
1.24487906
1.24410654
1.24333470
1.24256279
1.24179149
1.24101964
1.24024834
1.23947704
1.23870513
1.23793444
1.23716375
1.23639305
1.23562236
1.23485106
1.23408097
1.23331088
1.23254134
1.23177125
1.23100056
1.23023102
1.22946154
1.22869199
1.22792306
1.22715358
1.22638404
1.22561510
1.22484623
1.22407790
1.22330896
1.22254063
1.22177231
1.22100458
1.22023626
1.21946847
1.21870075
1.21793303
1.21716585
1.21639753
1.21563041
1.21486323
1.21409612
1.21332894
1.21256243
1.21179647
1.21102990
1.21026333
1.20949737
1.20873141
1.20796490
1.20719948
1.20643352
1.20566756
1.20490220
1.20413685
1.20337149
1.20260613
1.20184193
1.20107718
1.20031237
1.19954762
1.19878342
1.19801867
1.19725446
1.19649087
1.19572672
1.19496313
1.19419892
1.19343533
1.19267294
1.19190935
1.19114575
1.19038276
1.18962031
1.18885732
1.18809494
1.18733195
1.18657011
1.18580773
1.18504535
1.18428411
1.18352167
1.18275989
1.18199866
1.18123682
1.18047565
1.17971497
1.17895319
1.17819196
1.17743194
1.17667071
1.17591069
1.17515007
1.17438938
1.17362937
1.17286935
1.17210988
1.17134986
1.17059045
1.16983037
1.16907096
1.16831209
1.16755207
1.16679381
1.16603434
1.16527608
1.16451667
1.16375896
1.16300016
1.16224190
1.16148418
1.16072592
1.15996827
1.15921001
1.15845297
1.15769471
1.15693760
1.15618110
1.15542345
1.15466641
1.15390930
1.15315286
1.15239636
1.15163926
1.15088336
1.15012753
1.14937103
1.14861514
1.14785985
1.14710335
1.14634806
1.14559278
1.14483749
1.14408160
1.14332686
1.14257218
1.14181744
1.14106215
1.14030808
1.13955395
1.13879981
1.13804574
1.13729100
1.13653692
1.13578340
1.13502987
1.13427634
1.13352221
1.13276929
1.13201576
1.13126284
1.13051053
1.12975761
1.12900523
1.12825231
1.12749939
1.12674708
1.12599476
1.12524299
1.12449123
1.12373952
1.12298775
1.12223659
1.12148488
1.12073372
1.11998256
1.11923140
1.11848084
1.11772974
1.11697913
1.11622857
1.11547802
1.11472807
1.11397751
1.11322757
1.11247756
1.11172761
1.11097827
1.11022947
1.10948007
1.10873073
1.10798132
1.10723198
1.10648319
1.10573439
1.10498566
1.10423747
1.10348928
1.10274048
1.10199229
1.10124410
1.10049592
1.09974894
1.09900130
1.09825371
1.09750613
1.09675970
1.09601212
1.09526508
1.09451750
1.09377168
1.09302470
1.09227766
1.09153129
1.09078547
1.09003904
1.08929322
1.08854740
1.08780157
1.08705575
1.08631053
1.08556471
1.08481949
1.08407488
1.08332966
1.08258445
1.08183978
1.08109517
1.08035110
1.07960649
1.07886243
1.07811782
1.07737375
1.07663030
1.07588569
1.07514284
1.07439877
1.07365592
1.07291186
1.07216961
1.07142616
1.07068330
1.06994045
1.06919821
1.06845475
1.06771305
1.06697020
1.06622856
1.06548687
1.06474401
1.06400292
1.06326068
1.06251959
1.06177850
1.06103625
1.06029577
1.05955407
1.05881358
1.05807310
1.05733146
1.05659152
1.05585103
1.05511055
1.05437067
1.05363079
1.05289031
1.05215043
1.05141110
1.05067182
1.04993134
1.04919261
1.04845328
1.04771462
1.04697468
1.04623656
1.04549789
1.04475917
1.04402105
1.04328171
1.04254420
1.04180608
1.04106796
1.04033045
1.03959294
1.03885421
1.03811730
1.03737973
1.03664282
1.03590592
1.03516895
1.03443204
1.03369508
1.03295878
1.03222120
1.03148491
1.03074915
1.03001279
1.02927704
1.02854074
1.02780498
1.02706984
1.02633408
1.02559888
1.02486318
1.02412798
1.02339283
1.02265829
1.02192314
1.02118854
1.02045400
1.01971946
1.01898607
1.01825147
1.01751754
1.01678354
1.01604961
1.01531561
1.01458223
1.01384829
1.01311490
1.01238267
1.01164934
1.01091650
1.01018317
1.00945039
1.00871755
1.00798598
1.00725320
1.00652103
1.00578879
1.00505662
1.00432499
1.00359342
1.00286118
1.00212962
1.00139859
1.00066703
0.99993600
0.99920559
0.99847457
0.99774294
0.99701252
0.99628211
0.99555169
0.99482127
0.99409147
0.99336105
0.99263185
0.99190143
0.99117156
0.99044236
0.98971255
0.98898268
0.98825409
0.98752482
0.98679617
0.98606697
0.98533892
0.98460971
0.98388166
0.98315301
0.98242435
0.98169630
0.98096825
0.98024081
0.97951215
0.97878532
0.97805727
0.97733043
0.97660353
0.97587548
0.97514925
0.97442175
0.97369491
0.97296808
0.97224178
0.97151549
0.97078866
0.97006297
0.96933608
0.96861045
0.96788477
0.96715848
0.96643340
0.96570832
0.96498203
0.96425696
0.96353249
0.96280680
0.96208227
0.96135780
0.96063212
0.95990825
0.95918372
0.95845986
0.95773472
0.95701085
0.95628754
0.95556361
0.95483914
0.95411582
0.95339250
0.95266925
0.95194653
0.95122261
0.95049990
0.94977719
0.94905447
0.94833176
0.94760960
0.94688689
0.94616417
0.94544207
0.94471996
0.94399841
0.94327630
0.94255474
0.94183324
0.94111168
0.94039073
0.93966923
0.93894828
0.93822733
0.93750644
0.93678609
0.93606453
0.93534419
0.93462384
0.93390410
0.93318375
0.93246402
0.93174422
0.93102448
0.93030474
0.92958500
0.92886520
0.92814607
0.92742693
0.92670774
0.92598861
0.92526941
0.92455083
0.92383291
0.92311432
0.92239573
0.92167715
0.92095917
0.92024125
0.91952266
0.91880583
0.91808785
0.91737048
0.91665250
0.91593513
0.91521836
0.91450153
0.91378416
0.91306739
0.91235117
0.91163440
0.91091758
0.91020081
0.90948520
0.90876898
0.90805282
0.90733720
0.90662098
0.90590537
0.90519036
0.90447474
0.90375858
0.90304412
0.90232857
0.90161350
0.90089910
0.90018409
0.89947024
0.89875523
0.89804022
0.89732643
0.89661196
0.89589872
0.89518431
0.89447107
0.89375667
0.89304281
0.89233017
0.89161637
0.89090313
0.89018988
0.88947723
0.88876399
0.88805134
0.88733870
0.88662667
0.88591463
0.88520138
0.88448989
0.88377725
0.88306582
0.88235318
0.88164230
0.88093081
0.88021877
0.87950789
0.87879707
0.87808497
0.87737470
0.87666327
0.87595239
0.87524211
0.87453123
0.87382095
0.87311067
0.87240101
0.87169012
0.87098045
0.87027078
0.86956051
0.86885084
0.86814171
0.86743265
0.86672298
0.86601386
0.86530479
0.86459628
0.86388776
0.86317809
0.86246957
0.86176112
0.86105321
0.86034530
0.85963739
0.85892832
0.85822041
0.85751305
0.85680520
0.85609784
0.85539053
0.85468323
0.85397653
0.85326923
0.85256247
0.85185456
0.85114786
0.85044171
0.84973501
0.84902886
0.84832216
0.84761601
0.84691047
0.84620438
0.84549823
0.84479268
0.84408714
0.84338165
0.84267611
0.84197117
0.84126563
0.84056184
0.83985690
0.83915197
0.83844703
0.83774270
0.83703770
0.83633337
0.83562903
0.83492525
0.83422092
0.83351774
0.83281401
0.83211023
0.83140644
0.83070272
0.82999954
0.82929697
0.82859379
0.82789061
0.82718749
0.82648546
0.82578289
0.82507977
0.82437714
0.82367578
0.82297321
0.82227124
0.82156867
0.82086786
0.82016589
0.81946387
0.81876312
0.81806170
0.81735973
0.81665952
0.81595810
0.81525674
0.81455654
0.81385573
0.81315491
0.81245477
0.81175395
0.81105435
0.81035415
0.80965333
0.80895428
0.80825407
0.80755508
0.80685487
0.80615588
0.80545622
0.80475783
0.80405823
0.80335979
0.80266019
0.80196174
0.80126275
0.80056490
0.79986585
0.79916801
0.79846962
0.79777178
0.79707334
0.79637550
0.79567765
0.79498042
0.79428319
0.79358535
0.79288811
0.79219148
0.79149364
0.79079696
0.79009972
0.78940309
0.78870701
0.78800978
0.78731370
0.78661768
0.78592099
0.78522557
0.78452949
0.78383402
0.78313800
0.78244252
0.78174705
0.78105218
0.78035610
0.77966123
0.77896636
0.77827149
0.77757602
0.77688175
0.77618743
0.77549317
0.77479891
0.77410404
0.77340972
0.77271606
0.77202235
0.77132869
0.77063498
0.76994132
0.76924821
0.76855395
0.76786084
0.76716773
0.76647462
0.76578212
0.76508901
0.76439651
0.76370401
0.76301150
0.76231900
0.76162710
0.76093521
0.76024271
0.75955136
0.75885946
0.75816756
0.75747621
0.75678432
0.75609303
0.75540168
0.75471094
0.75401965
0.75332890
0.75263761
0.75194687
0.75125673
0.75056660
0.74987646
0.74918572
0.74849564
0.74780550
0.74711591
0.74642578
0.74573685
0.74504732
0.74435779
0.74366820
0.74297867
0.74228914
0.74160076
0.74091184
0.74022292
0.73953393
0.73884616
0.73815724
0.73746886
0.73678054
0.73609277
0.73540500
0.73471662
0.73402946
0.73334169
0.73265331
0.73196560
0.73127898
0.73059182
0.72990405
0.72921749
0.72853032
0.72784431
0.72715715
0.72646998
0.72578458
0.72509741
0.72441201
0.72372545
0.72303883
0.72235343
0.72166747
0.72098207
0.72029606
0.71961126
0.71892531
0.71824051
0.71755510
0.71687031
0.71618490
0.71550071
0.71481530
0.71413111
0.71344631
0.71276206
0.71207787
0.71139368
0.71071003
0.71002584
0.70934219
0.70865800
0.70797496
0.70729137
0.70660773
0.70592469
0.70524110
0.70455806
0.70387563
0.70319205
0.70250961
0.70182718
0.70114414
0.70046231
0.69977988
0.69909799
0.69841556
0.69773373
0.69705191
0.69636948
0.69568820
0.69500698
0.69432570
0.69364448
0.69296265
0.69228198
0.69160076
0.69092008
0.69023941
0.68955819
0.68887752
0.68819745
0.68751738
0.68683731
0.68615725
0.68547663
0.68479657
0.68411705
0.68343704
0.68275752
0.68207866
0.68139920
0.68071974
0.68004083
0.67936197
0.67868306
0.67800421
0.67732535
0.67664704
0.67596819
0.67528988
0.67461157
0.67393333
0.67325563
0.67257732
0.67189962
0.67122191
0.67054421
0.66986657
0.66918942
0.66851178
0.66783462
0.66715753
0.66648043
0.66580334
0.66512624
0.66445030
0.66377381
0.66309732
0.66242078
0.66174429
0.66106841
0.66039307
0.65971713
0.65904125
0.65836530
0.65768936
0.65701463
0.65633936
0.65566342
0.65498808
0.65431274
0.65363862
0.65296389
0.65228856
0.65161444
0.65093971
0.65026558
0.64959086
0.64891728
0.64824255
0.64756843
0.64689546
0.64622134
0.64554715
0.64487424
0.64420067
0.64352770
0.64285418
0.64218060
0.64150824
0.64083533
0.64016297
0.63949000
0.63881703
0.63814467
0.63747230
0.63680055
0.63612758
0.63545643
0.63478406
0.63411231
0.63344049
0.63276934
0.63209698
0.63142637
0.63075462
0.63008347
0.62941225
0.62874165
0.62806989
0.62739990
0.62672935
0.62605814
0.62538815
0.62471754
0.62404760
0.62337761
0.62270700
0.62203761
0.62136701
0.62069762
0.62002823
0.61935823
0.61868938
0.61802060
0.61735121
0.61668182
0.61601297
0.61534419
0.61467541
0.61400656
0.61333838
0.61267014
0.61200136
0.61133312
0.61066549
0.60999725
0.60932907
0.60866144
0.60799381
0.60732618
0.60665915
0.60599152
0.60532389
0.60465687
0.60398984
0.60332282
0.60265640
0.60198998
0.60132289
0.60065587
0.59998945
0.59932358
0.59865716
0.59799135
0.59732547
0.59665960
0.59599379
0.59532792
0.59466265
0.59399684
0.59333157
0.59266631
0.59200110
0.59133644
0.59067118
0.59000652
0.58934186
0.58867720
0.58801254
0.58734788
0.58668377
0.58601911
0.58535506
0.58469100
0.58402810
0.58336405
0.58269994
0.58203649
0.58137298
0.58070954
0.58004603
0.57938258
0.57872029
0.57805739
0.57739455
0.57673165
0.57606875
0.57540646
0.57474416
0.57408187
0.57341897
0.57275668
0.57209560
0.57143330
0.57077162
0.57010932
0.56944818
0.56878650
0.56812541
0.56746427
0.56680319
0.56614151
0.56548097
0.56481989
0.56415936
0.56349882
0.56283835
0.56217721
0.56151728
0.56085681
0.56019743
0.55953695
0.55887642
0.55821710
0.55755717
0.55689845
0.55623853
0.55557860
0.55491982
0.55425996
0.55360118
0.55294186
0.55228369
0.55162437
0.55096626
0.55030694
0.54964877
0.54899006
0.54833250
0.54767372
0.54701622
0.54635866
0.54569988
0.54504293
0.54438482
0.54372726
0.54307030
0.54241213
0.54175518
0.54109761
0.54044127
0.53978431
0.53912736
0.53847040
0.53781460
0.53715704
0.53650129
0.53584488
0.53518853
0.53453219
0.53387638
0.53322119
0.53256484
0.53190910
0.53125390
0.53059870
0.52994235
0.52928716
0.52863257
0.52797737
0.52732163
0.52666716
0.52601257
0.52535798
0.52470400
0.52404941
0.52339421
0.52274023
0.52208619
0.52143220
0.52077822
0.52012478
0.51947080
0.51881742
0.51816399
0.51751000
0.51685657
0.51620319
0.51555036
0.51489759
0.51424476
0.51359193
0.51293910
0.51228633
0.51163411
0.51098128
0.51032905
0.50967683
0.50902460
0.50837299
0.50772076
0.50706915
0.50641753
0.50576585
0.50511423
0.50446322
0.50381215
0.50316114
0.50250952
0.50185845
0.50120744
0.50055698
0.49990597
0.49925611
0.49860564
0.49795524
0.49730477
0.49665431
0.49600391
0.49535465
0.49470480
0.49405494
0.49340508
0.49275522
0.49210658
0.49145672
0.49080747
0.49015822
0.48950951
0.48886026
0.48821161
0.48756291
0.48691426
0.48626562
0.48561752
0.48496888
0.48432017
0.48367268
0.48302464
0.48237654
0.48172905
0.48108101
0.48043291
0.47978603
0.47913799
0.47849110
0.47784361
0.47719612
0.47654984
0.47590235
0.47525601
0.47460912
0.47396284
0.47331595
0.47266968
0.47202334
0.47137766
0.47073078
0.47008504
0.46943877
0.46879364
0.46814736
0.46750223
0.46685595
0.46621083
0.46556516
0.46492064
0.46427551
0.46363038
0.46298526
0.46234019
0.46169567
0.46105170
0.46040663
0.45976211
0.45911814
0.45847362
0.45782970
0.45718579
0.45654188
0.45589790
0.45525460
0.45461008
0.45396731
0.45332401
