corrn_curve_quartic
0.50851868
0.51302010
0.51751305
0.52198520
0.52644886
0.53089146
0.53531982
0.53973331
0.54413258
0.54851734
0.55288128
0.55723676
0.56157182
0.56589873
0.57020497
0.57449685
0.57877437
0.58303756
0.58728059
0.59151519
0.59572939
0.59993546
0.60411545
0.60828735
0.61244477
0.61658834
0.62071777
0.62482711
0.62892805
0.63300928
0.63707647
0.64112967
0.64516887
0.64919410
0.65319984
0.65719719
0.66117484
0.66513863
0.66909432
0.67303070
0.67695299
0.68085608
0.68475110
0.68863207
0.69249397
0.69634217
0.70017671
0.70400316
0.70780486
0.71159850
0.71537854
0.71913951
0.72289243
0.72662662
0.73034705
0.73405401
0.73774778
0.74142785
0.74509475
0.74874799
0.75237749
0.75600427
0.75961243
0.76320730
0.76679384
0.77035693
0.77391200
0.77744867
0.78097732
0.78448789
0.78798507
0.79146913
0.79494033
0.79839819
0.80184298
0.80526994
0.80868891
0.81208962
0.81547762
0.81885266
0.82221945
0.82556397
0.82890003
0.83222344
0.83553399
0.83882686
0.84210237
0.84537449
0.84862903
0.85187082
0.85510013
0.85831202
0.86151570
0.86470227
0.86787598
0.87103964
0.87418838
0.87732224
0.88044792
0.88355443
0.88665072
0.88973226
0.89280586
0.89586249
0.89890693
0.90194097
0.90495817
0.90796324
0.91095355
0.91393397
0.91690406
0.91985772
0.92279890
0.92572592
0.92864288
0.93154764
0.93443809
0.93731618
0.94018045
0.94303240
0.94587228
0.94870426
0.95151793
0.95432165
0.95711150
0.95988712
0.96265303
0.96540476
0.96814478
0.97087270
0.97358893
0.97629131
0.97898384
0.98166433
0.98433125
0.98698441
0.98962778
0.99225746
0.99487542
0.99747975
1.00007453
1.00265554
1.00522130
1.00777908
1.01032356
1.01285628
1.01537764
1.01788728
1.02038558
1.02287054
1.02534385
1.02780589
1.03025649
1.03269386
1.03511805
1.03753106
1.03993433
1.04232627
1.04470511
1.04707267
1.04942563
1.05177067
1.05410292
1.05642378
1.05873362
1.06102887
1.06331621
1.06559090
1.06785447
1.07010677
1.07234500
1.07457369
1.07679135
1.07899471
1.08119037
1.08337342
1.08554552
1.08770524
1.08985390
1.09199326
1.09411872
1.09623492
1.09833856
1.10042998
1.10251374
1.10458207
1.10664259
1.10869252
1.11072868
1.11275568
1.11477199
1.11677465
1.11876967
1.12074976
1.12272356
1.12468236
1.12663222
1.12856996
1.13050006
1.13241550
1.13432332
1.13621784
1.13810319
1.13997546
1.14184013
1.14369163
1.14553554
1.14736498
1.14918683
1.15099567
1.15279692
1.15458387
1.15636206
1.15813122
1.15988752
1.16163508
1.16337103
1.16509568
1.16681265
1.16851706
1.17021012
1.17189564
1.17356859
1.17523152
1.17688679
1.17852847
1.18016141
1.18178439
1.18339634
1.18499825
1.18658906
1.18817238
1.18974358
1.19130482
1.19285519
1.19439797
1.19592875
1.19744977
1.19896104
1.20046360
1.20195430
1.20343531
1.20490666
1.20636724
1.20781930
1.20926173
1.21069347
1.21211564
1.21352728
1.21492928
1.21632187
1.21770485
1.21907845
1.22044145
1.22179704
1.22314125
1.22447504
1.22580045
1.22711538
1.22842106
1.22971642
1.23100345
1.23228020
1.23354777
1.23480599
1.23605495
1.23729375
1.23852427
1.23974476
1.24095507
1.24215724
1.24334927
1.24453228
1.24570610
1.24687092
1.24802493
1.24917078
1.25030760
1.25143541
1.25255339
1.25366239
1.25476328
1.25585439
1.25693494
1.25800743
1.25907112
1.26012587
1.26117177
1.26220892
1.26323491
1.26425438
1.26526360
1.26626477
1.26725726
1.26823879
1.26921312
1.27017869
1.27113567
1.27208255
1.27302152
1.27395189
1.27487232
1.27578482
1.27668945
1.27758356
1.27847044
1.27934821
1.28021678
1.28107760
1.28192991
1.28277320
1.28360808
1.28443450
1.28525197
1.28606171
1.28686188
1.28765434
1.28843908
1.28921375
1.28998132
1.29073954
1.29149004
1.29223175
1.29296582
1.29369120
1.29440782
1.29511688
1.29581722
1.29651003
1.29719369
1.29786974
1.29853727
1.29919625
1.29984821
1.30049117
1.30112663
1.30175363
1.30237267
1.30298330
1.30358607
1.30418180
1.30476828
1.30534778
1.30591858
1.30648113
1.30703710
1.30758404
1.30812320
1.30865537
1.30917861
1.30969453
1.31020308
1.31070319
1.31119529
1.31168077
1.31215753
1.31262670
1.31308823
1.31354252
1.31398887
1.31442736
1.31485828
1.31528232
1.31569791
1.31610633
1.31650693
1.31690011
1.31728644
1.31766442
1.31803532
1.31839854
1.31875438
1.31910261
1.31944402
1.31977784
1.32010410
1.32042309
1.32073455
1.32103899
1.32133597
1.32162572
1.32190828
1.32218341
1.32245181
1.32271262
1.32296630
1.32321287
1.32345230
1.32368447
1.32390958
1.32412763
1.32433863
1.32454246
1.32473927
1.32492910
1.32511197
1.32528786
1.32545667
1.32561845
1.32577332
1.32592143
1.32606265
1.32619691
1.32632432
1.32644491
1.32655869
1.32666558
1.32676569
1.32685898
1.32694560
1.32702542
1.32709859
1.32716500
1.32722474
1.32727773
1.32732412
1.32736390
1.32739705
1.32742358
1.32744351
1.32745689
1.32746372
1.32746401
1.32745780
1.32744507
1.32742586
1.32740018
1.32736808
1.32732954
1.32728455
1.32723322
1.32717547
1.32711134
1.32704096
1.32696419
1.32688102
1.32679175
1.32669605
1.32659406
1.32648597
1.32637156
1.32625110
1.32612423
1.32599117
1.32585213
1.32570681
1.32555558
1.32539797
1.32523450
1.32506480
1.32488914
1.32470728
1.32451965
1.32432581
1.32412613
1.32392028
1.32370874
1.32349091
1.32326745
1.32303788
1.32280254
1.32256112
1.32231416
1.32206152
1.32180242
1.32153807
1.32126747
1.32099148
1.32070991
1.32042188
1.32012875
1.31982940
1.31952475
1.31921465
1.31889834
1.31857656
1.31824939
1.31791626
1.31757777
1.31723361
1.31688412
1.31652877
1.31616809
1.31580183
1.31542972
1.31505265
1.31467007
1.31428197
1.31388837
1.31348898
1.31308475
1.31267508
1.31226026
1.31183973
1.31141346
1.31098243
1.31054607
1.31010431
1.30965756
1.30920516
1.30874741
1.30828472
1.30781678
1.30734391
1.30686541
1.30638205
1.30589346
1.30540006
1.30490107
1.30439726
1.30388833
1.30337425
1.30285540
1.30233065
1.30180162
1.30126746
1.30072826
1.30018397
1.29963510
1.29908160
1.29852265
1.29795870
1.29739022
1.29681676
1.29623794
1.29565501
1.29506673
1.29447354
1.29387592
1.29327342
1.29266605
1.29205383
1.29143770
1.29081631
1.29019006
1.28955906
1.28892374
1.28828320
1.28763837
1.28698931
1.28633508
1.28567660
1.28501291
1.28434506
1.28367363
1.28299648
1.28231469
1.28162882
1.28093885
1.28024379
1.27954472
1.27884052
1.27813284
1.27742013
1.27670289
1.27598225
1.27525597
1.27452584
1.27379178
1.27305270
1.27230983
1.27156302
1.27081073
1.27005459
1.26929529
1.26853042
1.26776243
1.26698949
1.26621217
1.26543124
1.26464601
1.26385708
1.26306333
1.26226596
1.26146366
1.26065785
1.25984842
1.25903357
1.25821643
1.25739382
1.25656838
1.25573756
1.25490448
1.25406609
1.25322422
1.25237888
1.25152887
1.25067549
1.24981740
1.24895666
1.24809054
1.24722174
1.24634966
1.24547229
1.24459168
1.24370705
1.24281929
1.24192755
1.24103120
1.24013240
1.23922982
1.23832258
1.23741224
1.23649880
1.23558009
1.23465905
1.23373423
1.23280565
1.23187255
1.23093715
1.22999809
1.22905524
1.22810801
1.22715861
1.22620547
1.22524868
1.22428831
1.22332347
1.22235585
1.22138533
1.22041123
1.21943354
1.21845151
1.21746750
1.21647917
1.21548810
1.21449434
1.21349627
1.21249545
1.21149044
1.21048196
1.20947086
1.20845632
1.20743912
1.20641851
1.20539460
1.20436723
1.20333733
1.20230334
1.20126676
1.20022687
1.19918366
1.19813801
1.19708832
1.19603604
1.19498059
1.19392190
1.19286084
1.19179571
1.19072824
1.18965750
1.18858367
1.18750755
1.18642907
1.18534659
1.18426107
1.18317236
1.18208064
1.18098663
1.17988956
1.17878952
1.17768725
1.17658194
1.17547273
1.17436141
1.17324711
1.17212982
1.17101139
1.16988901
1.16876379
1.16763565
1.16650634
1.16537238
1.16423637
1.16309666
1.16195677
1.16081228
1.15966486
1.15851565
1.15736447
1.15620957
1.15505282
1.15389331
1.15273104
1.15156603
1.15039925
1.14922879
1.14805659
1.14688265
1.14570508
1.14452485
1.14334283
1.14215826
1.14097195
1.13978215
1.13859062
1.13739563
1.13619895
1.13500068
1.13379800
1.13259562
1.13138876
1.13018136
1.12896949
1.12775810
1.12654226
1.12532495
1.12410519
1.12288399
1.12165838
1.12043325
1.11920383
1.11797403
1.11674177
1.11550522
1.11426926
1.11302904
1.11178843
1.11054551
1.10929837
1.10805189
1.10680110
1.10555010
1.10429685
1.10303942
1.10178265
1.10052274
1.09926064
1.09799739
1.09673197
1.09546335
1.09419362
1.09292270
1.09164976
1.09037262
1.08909642
1.08781708
1.08653684
1.08525232
1.08396891
1.08268252
1.08139400
1.08010453
1.07881094
1.07751855
1.07622312
1.07492573
1.07362746
1.07232726
1.07102298
1.06972001
1.06841396
1.06710720
1.06579857
1.06448796
1.06317562
1.06186132
1.06054639
1.05922736
1.05790881
1.05658944
1.05526721
1.05394430
1.05261866
1.05129225
1.04996521
1.04863536
1.04730478
1.04597163
1.04463768
1.04330217
1.04196610
1.04062728
1.03928782
1.03794684
1.03660426
1.03526219
1.03391631
1.03257007
1.03122216
1.02987281
1.02852181
1.02717040
1.02581647
1.02446204
1.02310824
1.02175095
1.02039309
1.01903287
1.01767222
1.01631003
1.01494878
1.01358386
1.01221868
1.01085200
1.00948405
1.00811576
1.00674624
1.00537413
1.00400194
1.00262946
1.00125465
0.99987957
0.99850435
0.99712673
0.99574670
0.99436771
0.99298749
0.99160605
0.99022339
0.98884069
0.98745565
0.98607173
0.98468435
0.98329684
0.98190947
0.98051981
0.97912892
0.97773934
0.97634740
0.97495554
0.97356155
0.97216871
0.97077262
0.96937769
0.96798058
0.96658244
0.96518447
0.96378550
0.96238672
0.96098464
0.95958510
0.95818228
0.95678085
0.95537839
0.95397279
0.95256981
0.95116347
0.94975754
0.94835074
0.94694414
0.94553670
0.94412737
0.94271944
0.94130836
0.93989894
0.93848862
0.93707634
0.93566565
0.93425421
0.93283966
0.93142674
0.93001428
0.92859875
0.92718476
0.92577021
0.92435260
0.92293789
0.92152122
0.92010520
0.91868607
0.91726880
0.91585199
0.91443339
0.91301314
0.91159456
0.91017542
0.90875585
0.90733680
0.90591483
0.90449473
0.90307411
0.90165299
0.90023139
0.89881037
0.89738782
0.89596481
0.89454254
0.89311985
0.89169780
0.89027426
0.88885140
0.88742827
0.88600463
0.88458183
0.88315758
0.88173407
0.88031022
0.87888616
0.87746287
0.87603687
0.87461298
0.87318880
0.87176555
0.87034084
0.86891708
0.86749296
0.86606872
0.86464427
0.86321962
0.86179464
0.86037080
0.85894678
0.85752248
0.85609814
0.85467354
0.85325001
0.85182767
0.85040390
0.84898003
0.84755607
0.84613324
0.84471045
0.84328628
0.84186555
0.84044249
0.83902062
0.83759752
0.83617562
0.83475492
0.83333412
0.83191227
0.83049165
0.82907216
0.82765164
0.82623108
0.82481071
0.82339271
0.82197361
0.82055474
0.81913707
0.81771832
0.81630092
0.81488487
0.81346779
0.81204979
0.81063534
0.80921891
0.80780365
0.80638993
0.80497523
0.80356304
0.80214881
0.80073484
0.79932354
0.79791119
0.79650152
0.79508987
0.79368080
0.79226978
0.79086015
0.78945326
0.78804444
0.78663706
0.78523004
0.78382460
0.78241835
0.78101369
0.77960944
0.77820680
0.77680459
0.77540043
0.77400018
0.77259812
0.77119892
0.76979781
0.76840065
0.76700279
0.76560437
0.76420874
0.76281375
0.76141680
0.76002397
0.75862944
0.75723655
0.75584543
0.75445371
0.75306377
0.75167445
0.75028693
0.74889767
0.74751142
0.74612582
0.74473970
0.74335542
0.74197290
0.74059117
0.73920897
0.73782854
0.73644894
0.73507114
0.73369407
0.73231552
0.73093996
0.72956529
0.72819245
0.72682040
0.72544915
0.72407648
0.72270685
0.72133911
0.71997127
0.71860521
0.71724012
0.71587590
0.71451373
0.71315127
0.71179076
0.71042894
0.70907037
0.70771377
0.70635705
0.70500233
0.70364752
0.70229472
0.70094405
0.69959332
0.69824346
0.69689577
0.69554909
0.69420355
0.69285892
0.69151649
0.69017395
0.68883582
0.68749657
0.68615840
0.68482131
0.68348648
0.68215149
0.68081888
0.67948739
0.67815808
0.67682888
0.67550301
0.67417728
0.67285260
0.67152911
0.67020693
0.66888698
0.66756938
0.66625186
0.66493557
0.66362064
0.66230900
0.66099760
0.65968644
0.65837748
0.65707217
0.65576590
0.65446207
0.65315843
0.65185937
0.65055951
0.64926089
0.64796597
0.64667119
0.64537677
0.64408697
0.64279633
0.64150720
0.64022160
0.63893630
0.63765243
0.63637123
0.63509024
0.63381293
0.63253598
0.63125939
0.62998749
0.62871499
0.62744619
0.62617671
0.62491094
0.62364549
0.62238388
0.62112163
0.61986302
0.61860389
0.61734842
0.61609354
0.61484233
0.61359055
0.61234255
0.61109519
0.60985044
0.60860625
0.60736479
0.60612498
0.60488791
0.60365252
0.60241774
0.60118573
0.59995649
0.59872682
0.59750090
0.59627575
0.59505340
0.59383376
0.59261386
0.59139774
0.59018350
0.58896987
0.58776026
0.58655129
0.58534518
0.58413994
0.58293747
0.58173684
0.58053911
0.57934113
0.57814711
0.57695496
0.57576469
0.57457528
0.57338983
0.57220619
0.57102457
0.56984487
0.56866607
0.56749015
0.56631731
0.56514632
0.56397741
0.56281037
0.56164542
0.56048338
0.55932142
0.55816340
0.55700740
0.55585343
0.55470251
0.55355263
0.55240581
0.55126105
0.55011837
0.54897778
0.54784027
0.54670486
0.54557057
0.54444028
0.54331122
0.54218430
0.54106041
0.53993779
0.53881831
0.53770091
0.53658666
0.53547371
0.53436384
0.53325530
0.53214985
0.53104758
0.52994755
0.52884975
0.52775323
0.52666003
0.52556899
0.52448109
0.52339461
0.52231233
0.52123138
0.52015275
0.51907633
0.51800234
0.51693067
0.51586314
0.51479711
0.51373343
0.51267203
0.51161486
0.51055831
0.50950499
0.50845415
0.50740656
0.50636138
0.50531770
0.50427830
0.50324041
0.50220406
0.50117118
0.50014240
0.49911527
0.49808973
0.49706848
0.49604882
0.49503338
0.49401876
0.49300666
0.49199967
0.49099265
0.48999075
0.48898972
0.48799117
0.48699696
0.48600454
0.48501550
0.48402818
0.48304521
0.48206320
0.48108546
0.48010949
0.47913702
0.47816634
0.47720003
0.47623467
0.47527369
0.47431454
0.47335884
0.47240592
0.47145571
0.47050896
0.46956418
0.46862289
0.46768357
0.46674859
0.46581561
0.46488530
0.46395859
0.46303392
0.46211278
0.46119524
0.46027895
0.45936702
0.45845791
0.45755081
0.45664816
0.45574755
0.45485050
0.45395559
0.45306434
0.45217597
0.45128969
0.45040780
0.44952887
0.44865278
0.44777967
0.44690871
0.44604215
0.44517783
0.44431715
0.44345942
0.44260396
0.44175217
0.44090410
0.44005901
0.43921692
0.43837782
0.43754107
0.43670800
0.43587862
0.43505168
0.43422837
0.43340891
0.43259177
0.43177770
0.43096735
0.43016015
0.42935596
0.42855494
0.42775701
0.42696284
0.42617115
0.42538322
0.42459842
0.42381683
0.42303901
0.42226366
0.42149216
0.42072383
0.41995868
0.41919679
0.41843863
0.41768314
0.41693139
0.41618293
0.41543769
0.41469569
0.41395693
0.41322267
0.41249107
0.41176273
0.41103760
0.41031582
0.40959796
0.40888398
0.40817265
0.40746469
0.40675999
0.40605861
0.40536182
0.40466780
0.40397645
0.40328907
0.40260506
0.40192564
0.40124898
0.40057509
0.39990581
0.39923933
0.39857685
0.39791719
0.39726207
0.39660926
0.39596048
0.39531625
0.39467436
0.39403588
0.39340207
0.39277110
0.39214417
0.39152023
0.39089973
0.39028385
0.38967097
0.38906211
0.38845622
0.38785387
0.38725561
0.38666088
0.38607025
0.38548211
0.38489913
0.38431867
0.38374232
0.38316951
0.38260087
0.38203480
0.38147383
0.38091551
0.38036133
0.37981073
0.37926426
0.37872052
0.37818185
0.37764640
0.37711409
0.37658643
0.37606197
0.37554172
0.37502513
0.37451177
0.37400306
0.37349715
0.37299589
0.37249836
0.37200412
0.37151449
0.37102864
0.37054613
0.37006738
0.36959281
0.36912206
0.36865511
0.36819192
0.36773299
0.36727783
0.36682613
0.36637862
0.36593535
0.36549552
0.36505959
0.36462787
0.36420001
0.36377602
0.36335629
0.36294006
0.36252773
0.36211968
0.36171553
0.36131529
0.36091933
0.36052730
0.36013881
0.35975431
0.35937410
0.35899815
0.35862586
0.35825788
0.35789383
0.35753377
0.35717773
0.35682566
0.35647791
0.35613388
0.35579416
0.35545846
0.35512682
0.35479949
0.35447591
0.35415667
0.35384149
0.35353038
0.35322334
0.35292038
0.35262176
0.35232699
0.35203658
0.35175029
0.35146860
0.35119053
0.35091658
0.35064703
0.35038160
0.35012034
0.34986321
0.34961028
0.34936194
0.34911755
0.34887736
0.34864134
0.34840952
0.34818211
0.34795891
0.34773992
0.34752496
0.34731443
0.34710852
0.34690646
0.34670885
0.34651531
0.34632637
0.34614154
0.34596115
0.34578503
0.34561321
0.34544554
0.34528245
0.34512355
0.34496908
0.34481894
0.34467314
0.34453153
0.34439453
0.34426176
0.34413356
0.34400951
0.34388982
0.34377473
0.34366391
0.34355768
0.34345565
0.34335802
0.34326497
0.34317619
0.34309197
0.34301211
0.34293682
0.34286584
0.34279944
0.34273737
0.34267987
0.34262679
0.34257827
0.34253415
0.34249459
0.34245952
0.34242889
0.34240284
0.34238126
0.34236422
0.34235172
0.34234373
0.34234029
0.34234140
0.34234705
0.34235726
0.34237204
0.34239139
0.34241527
0.34244381
0.34247686
0.34251453
0.34255680
0.34260369
0.34265515
0.34271117
0.34277192
0.34283726
0.34290717
0.34298173
0.34306108
0.34314495
0.34323340
0.34332660
0.34342457
0.34352703
0.34363420
0.34374607
0.34386252
0.34398379
0.34410990
0.34424050
0.34437584
0.34451589
0.34466069
0.34481011
0.34496441
0.34512332
0.34528701
0.34545561
0.34562886
0.34580687
0.34598952
0.34617695
0.34636920
0.34656626
0.34676813
0.34697480
0.34718613
0.34740249
0.34762349
0.34784934
0.34808004
0.34831538
0.34855580
0.34880087
0.34905082
0.34930567
0.34956539
0.34982975
0.35009904
0.35037321
0.35065255
0.35093658
0.35122551
0.35151912
0.35181792
0.35212113
0.35242957
0.35274293
0.35306129
0.35338462
0.35371290
0.35404557
0.35438353
0.35472648
0.35507444
0.35542740
0.35578470
0.35614769
0.35651537
0.35688807
0.35726549
0.35764827
0.35803573
0.35842828
0.35882585
0.35922849
0.35963585
0.36004863
0.36046654
0.36088874
0.36131639
0.36174919
0.36218668
0.36262965
0.36307778
0.36353019
0.36398854
0.36445121
0.36491945
0.36539284
0.36587049
0.36635420
0.36684220
0.36733579
0.36783408
0.36833803
0.36884668
0.36936058
0.36987914
0.37040389
0.37093290
0.37146759
0.37200653
0.37255167
0.37310107
0.37365669
0.37421656
0.37478216
0.37535201
0.37592764
0.37650855
0.37709473
0.37768614
0.37828233
0.37888329
0.37949058
0.38010266
0.38071952
0.38134222
0.38196965
0.38260241
0.38324049
0.38388397
0.38453212
0.38518685
0.38584514
0.38650935
