corrn_curve_cubic
1.76133559
1.75935648
1.75737845
1.75540692
1.75343647
1.75147265
1.74951246
1.74755618
1.74560352
1.74365462
1.74171229
1.73977102
1.73783616
1.73590223
1.73397483
1.73205114
1.73013116
1.72821490
1.72630497
1.72439610
1.72249368
1.72059218
1.71869974
1.71680820
1.71492047
1.71303625
1.71115570
1.70928151
1.70740838
1.70554146
1.70367816
1.70181849
1.69996243
1.69810998
1.69626368
1.69441843
1.69257945
1.69074405
1.68890956
1.68708118
1.68525650
1.68343789
1.68162019
1.67980617
1.67799820
1.67619376
1.67439285
1.67259284
1.67080159
1.66901123
1.66722437
1.66544362
1.66366377
1.66188986
1.66011957
1.65835275
1.65658926
1.65482938
1.65307282
1.65131984
1.64957530
1.64782908
1.64608885
1.64435205
1.64261625
1.64088882
1.63916226
1.63744163
1.63572188
1.63400791
1.63229745
1.63059036
1.62888653
1.62718619
1.62548921
1.62379795
1.62210755
1.62042310
1.61874187
1.61706396
1.61538705
1.61371813
1.61205031
1.61038568
1.60872436
1.60706877
1.60541878
1.60376734
1.60212161
1.60047915
1.59883983
1.59720619
1.59557352
1.59394638
1.59232260
1.59070075
1.58908332
1.58747031
1.58585827
1.58425287
1.58264951
1.58105052
1.57945238
1.57785979
1.57627026
1.57468286
1.57310098
1.57152215
1.56994776
1.56837525
1.56680485
1.56523979
1.56367800
1.56212037
1.56056472
1.55901220
1.55746394
1.55591891
1.55437789
1.55284009
1.55130538
1.54977150
1.54824410
1.54671865
1.54519728
1.54368022
1.54216498
1.54065403
1.53914602
1.53764116
1.53613923
1.53464144
1.53314557
1.53165284
1.53016412
1.52867951
1.52719681
1.52571821
1.52424260
1.52277107
1.52130132
1.51983575
1.51837520
1.51691557
1.51545986
1.51400722
1.51255742
1.51111067
1.50966675
1.50822684
1.50678996
1.50535589
1.50392475
1.50249757
1.50107436
1.49965394
1.49823546
1.49681987
1.49540822
1.49399944
1.49259552
1.49119248
1.48979325
1.48839697
1.48700343
1.48561482
1.48422707
1.48284309
1.48146194
1.48008371
1.47871015
1.47733848
1.47596961
1.47460557
1.47324230
1.47188283
1.47052615
1.46917316
1.46782304
1.46647468
1.46513099
1.46378905
1.46245097
1.46111653
1.45978284
1.45845487
1.45712774
1.45580323
1.45448343
1.45316535
1.45184997
1.45053927
1.44922930
1.44792486
1.44662028
1.44532130
1.44402393
1.44273029
1.44143738
1.44014993
1.43886321
1.43758107
1.43630070
1.43502480
1.43374961
1.43247896
1.43120902
1.42994456
1.42868081
1.42742156
1.42616303
1.42490991
1.42365835
1.42240854
1.42116318
1.41991936
1.41867914
1.41744232
1.41620630
1.41497459
1.41374636
1.41251882
1.41129566
1.41007503
1.40885519
1.40764052
1.40642746
1.40521691
1.40400969
1.40280506
1.40160383
1.40040328
1.39920694
1.39801316
1.39682267
1.39563294
1.39444738
1.39326428
1.39208364
1.39090464
1.38972978
1.38855735
1.38738736
1.38622068
1.38505554
1.38389282
1.38273339
1.38157637
1.38042254
1.37927119
1.37812214
1.37697557
1.37583130
1.37469036
1.37355006
1.37241377
1.37128070
1.37014913
1.36902085
1.36789483
1.36677200
1.36565066
1.36453250
1.36341658
1.36230307
1.36119187
1.36008382
1.35897725
1.35787372
1.35677342
1.35567448
1.35457875
1.35348522
1.35239404
1.35130505
1.35021998
1.34913635
1.34805496
1.34697584
1.34589977
1.34482594
1.34375354
1.34268418
1.34161867
1.34055457
1.33949260
1.33843293
1.33737546
1.33632011
1.33526936
1.33421848
1.33317131
1.33212560
1.33108198
1.33004292
1.32900444
1.32796819
1.32693403
1.32590359
1.32487451
1.32384758
1.32282426
1.32180237
1.32078183
1.31976567
1.31875014
1.31773743
1.31672767
1.31571916
1.31471283
1.31370929
1.31270783
1.31170852
1.31071199
1.30971676
1.30872512
1.30773478
1.30674575
1.30576104
1.30477686
1.30379616
1.30281682
1.30184026
1.30086499
1.29989241
1.29892267
1.29795412
1.29698840
1.29602387
1.29506282
1.29410310
1.29314603
1.29219168
1.29123784
1.29028744
1.28933829
1.28839182
1.28744732
1.28650550
1.28556556
1.28462619
1.28369093
1.28275616
1.28182470
1.28089587
1.27996690
1.27904191
1.27811883
1.27719632
1.27627777
1.27536040
1.27444430
1.27353142
1.27262106
1.27171062
1.27080409
1.26989935
1.26899655
1.26809491
1.26719583
1.26629922
1.26540453
1.26451030
1.26361990
1.26273066
1.26184399
1.26095908
1.26007462
1.25919410
1.25831463
1.25743765
1.25656246
1.25568975
1.25481748
1.25394767
1.25308032
1.25221468
1.25135154
1.25048950
1.24962983
1.24877198
1.24791582
1.24706213
1.24620881
1.24535861
1.24451008
1.24366328
1.24281828
1.24197558
1.24113461
1.24029534
1.23945779
1.23862258
1.23778908
1.23695726
1.23612708
1.23529864
1.23447253
1.23364867
1.23282654
1.23200538
1.23118594
1.23036874
1.22955325
1.22873935
1.22792709
1.22711710
1.22630881
1.22550272
1.22469762
1.22389477
1.22309292
1.22229330
1.22149529
1.22070007
1.21990588
1.21911267
1.21832160
1.21753219
1.21674552
1.21595987
1.21517513
1.21439263
1.21361284
1.21283340
1.21205612
1.21128039
1.21050681
1.20973477
1.20896373
1.20819530
1.20742786
1.20666194
1.20589873
1.20513638
1.20437501
1.20361692
1.20285909
1.20210282
1.20134916
1.20059646
1.19984635
1.19909655
1.19834829
1.19760261
1.19685781
1.19611564
1.19537376
1.19463449
1.19389609
1.19315971
1.19242420
1.19169127
1.19095914
1.19022907
1.18949985
1.18877313
1.18804674
1.18732284
1.18659984
1.18587874
1.18515854
1.18444080
1.18372500
1.18300891
1.18229587
1.18158309
1.18087280
1.18016443
1.17945576
1.17875010
1.17804469
1.17734169
1.17664063
1.17593981
1.17524082
1.17454377
1.17384744
1.17315303
1.17245989
1.17176861
1.17107815
1.17038949
1.16970212
1.16901551
1.16833128
1.16764833
1.16696667
1.16628629
1.16560665
1.16492935
1.16425332
1.16357902
1.16290551
1.16223273
1.16156220
1.16089297
1.16022494
1.15955866
1.15889315
1.15822881
1.15756623
1.15690491
1.15624529
1.15558635
1.15492915
1.15427315
1.15361886
1.15296526
1.15231331
1.15166260
1.15101308
1.15036519
1.14971751
1.14907203
1.14842766
1.14778450
1.14714246
1.14650212
1.14586339
1.14522530
1.14458835
1.14395305
1.14331888
1.14268539
1.14205392
1.14142313
1.14079345
1.14016539
1.13953843
1.13891259
1.13828784
1.13766513
1.13704307
1.13642204
1.13580216
1.13518379
1.13456606
1.13394984
1.13333518
1.13272115
1.13210861
1.13149665
1.13088622
1.13027781
1.12966948
1.12906219
1.12845641
1.12785210
1.12724839
1.12664617
1.12604450
1.12544476
1.12484559
1.12424744
1.12365119
1.12305499
1.12246031
1.12186705
1.12127430
1.12068305
1.12009316
1.11950340
1.11891504
1.11832858
1.11774215
1.11715761
1.11657356
1.11599042
1.11540873
1.11482799
1.11424861
1.11366974
1.11309227
1.11251522
1.11193960
1.11136532
1.11079108
1.11021908
1.10964707
1.10907688
1.10850673
1.10793874
1.10737083
1.10680422
1.10623890
1.10567405
1.10511054
1.10454744
1.10398611
1.10342475
1.10286511
1.10230677
1.10174843
1.10119139
1.10063515
1.10008024
1.09952613
1.09897240
1.09842039
1.09786925
1.09731845
1.09676891
1.09622062
1.09567227
1.09512560
1.09457973
1.09403466
1.09348995
1.09294686
1.09240461
1.09186309
1.09132196
1.09078248
1.09024372
1.08970573
1.08916855
1.08863166
1.08809600
1.08756148
1.08702771
1.08649468
1.08596197
1.08543085
1.08490004
1.08437038
1.08384188
1.08331367
1.08278657
1.08225980
1.08173374
1.08120881
1.08068459
1.08016145
1.07963900
1.07911729
1.07859622
1.07807626
1.07755660
1.07703800
1.07652007
1.07600281
1.07548664
1.07497075
1.07445586
1.07394166
1.07342811
1.07291562
1.07240337
1.07189216
1.07138156
1.07087162
1.07036273
1.06985484
1.06934715
1.06884012
1.06833367
1.06782786
1.06732304
1.06681881
1.06631523
1.06581260
1.06531057
1.06480873
1.06430787
1.06380759
1.06330789
1.06280958
1.06231139
1.06181380
1.06131678
1.06082108
1.06032517
1.05983018
1.05933537
1.05884227
1.05834895
1.05785613
1.05736428
1.05687332
1.05638249
1.05589258
1.05540318
1.05491431
1.05442594
1.05393848
1.05345112
1.05296467
1.05247910
1.05199364
1.05150866
1.05102453
1.05054092
1.05005814
1.04957548
1.04909365
1.04861193
1.04813104
1.04765099
1.04717066
1.04669192
1.04621284
1.04573500
1.04525681
1.04478024
1.04430332
1.04382723
1.04335156
1.04287671
1.04240150
1.04192784
1.04145386
1.04098106
1.04050863
1.04003587
1.03956463
1.03909306
1.03862261
1.03815255
1.03768215
1.03721324
1.03674395
1.03627580
1.03580803
1.03533989
1.03487319
1.03440651
1.03394019
1.03347461
1.03300938
1.03254411
1.03207957
1.03161572
1.03115224
1.03068833
1.03022586
1.02976333
1.02930155
1.02883929
1.02837848
1.02791765
1.02745709
1.02699721
1.02653688
1.02607799
1.02561901
1.02516032
1.02470230
1.02424457
1.02378637
1.02332957
1.02287264
1.02241639
1.02196041
1.02150466
1.02104921
1.02059398
1.02013942
1.01968432
1.01923026
1.01877677
1.01832316
1.01787016
1.01741705
1.01696452
1.01651258
1.01606050
1.01560897
1.01515736
1.01470627
1.01425542
1.01380516
1.01335472
1.01290482
1.01245516
1.01200569
1.01155712
1.01110799
1.01065945
1.01021106
1.00976288
1.00931484
1.00886734
1.00841967
1.00797250
1.00752620
1.00707939
1.00663302
1.00618652
1.00574049
1.00529457
1.00484956
1.00440396
1.00395885
1.00351385
1.00306900
1.00262461
1.00218038
1.00173587
1.00129187
1.00084831
1.00040453
0.99996119
0.99951832
0.99907517
0.99863176
0.99818917
0.99774667
0.99730425
0.99686191
0.99642002
0.99597784
0.99553647
0.99509442
0.99465278
0.99421160
0.99377011
0.99332864
0.99288799
0.99244699
0.99200641
0.99156553
0.99112539
0.99068459
0.99024452
0.98980411
0.98936373
0.98892374
0.98848377
0.98804418
0.98760387
0.98716468
0.98672475
0.98628557
0.98584635
0.98540643
0.98496760
0.98452800
0.98408878
0.98364955
0.98321063
0.98277170
0.98233240
0.98189378
0.98145439
0.98101573
0.98057701
0.98013787
0.97969943
0.97926093
0.97882166
0.97838306
0.97794478
0.97750570
0.97706726
0.97662878
0.97618951
0.97575126
0.97531254
0.97487414
0.97443488
0.97399632
0.97355800
0.97311921
0.97268001
0.97224140
0.97180270
0.97136393
0.97092538
0.97048599
0.97004722
0.96960833
0.96916933
0.96873020
0.96829129
0.96785191
0.96741240
0.96697312
0.96653371
0.96609449
0.96565479
0.96521528
0.96477565
0.96433584
0.96389624
0.96345614
0.96301622
0.96257614
0.96213592
0.96169586
0.96125489
0.96081449
0.96037390
0.95993350
0.95949254
0.95905176
0.95861076
0.95816960
0.95772823
0.95728667
0.95684486
0.95640326
0.95596144
0.95551938
0.95507713
0.95463463
0.95419228
0.95375011
0.95330730
0.95286426
0.95242099
0.95197785
0.95153451
0.95109051
0.95064735
0.95020323
0.94975924
0.94931461
0.94887010
0.94842570
0.94798100
0.94753569
0.94709049
0.94664536
0.94619960
0.94575354
0.94530722
0.94486134
0.94441479
0.94396799
0.94352123
0.94307380
0.94262645
0.94217917
0.94173121
0.94128259
0.94083473
0.94038587
0.93993699
0.93948822
0.93903873
0.93858965
0.93813951
0.93768904
0.93723899
0.93678819
0.93633781
0.93588636
0.93543529
0.93498314
0.93453098
0.93407924
0.93362640
0.93317356
0.93272034
0.93226714
0.93181319
0.93135925
0.93090494
0.93045063
0.92999594
0.92954009
0.92908498
0.92862873
0.92817288
0.92771584
0.92725954
0.92680245
0.92634460
0.92588708
0.92542919
0.92497007
0.92451170
0.92405217
0.92359257
0.92313294
0.92267249
0.92221200
0.92175108
0.92129011
0.92082792
0.92036607
0.91990378
0.91944065
0.91897746
0.91851417
0.91805047
0.91758591
0.91712125
0.91665616
0.91619097
0.91572530
0.91525840
0.91479179
0.91432473
0.91385756
0.91338990
0.91292175
0.91245236
0.91198323
0.91151396
0.91104388
0.91057362
0.91010290
0.90963167
0.90916033
0.90868808
0.90821568
0.90774199
0.90726859
0.90679503
0.90632058
0.90584597
0.90537046
0.90489479
0.90441898
0.90394227
0.90346497
0.90298754
0.90250956
0.90203108
0.90155199
0.90107276
0.90059257
0.90011300
0.89963209
0.89915061
0.89866856
0.89818636
0.89770312
0.89721976
0.89673582
0.89625167
0.89576656
0.89528165
0.89479578
0.89430927
0.89382217
0.89333450
0.89284661
0.89235854
0.89186944
0.89137973
0.89088945
0.89039931
0.88990818
0.88941604
0.88892361
0.88843146
0.88793782
0.88744398
0.88694907
0.88645477
0.88595901
0.88546257
0.88496639
0.88446908
0.88397074
0.88347299
0.88297373
0.88247385
0.88197413
0.88147331
0.88097182
0.88047015
0.87996732
0.87946470
0.87896095
0.87845610
0.87795182
0.87744603
0.87694043
0.87643327
0.87592628
0.87541812
0.87491019
0.87440067
0.87389130
0.87338037
0.87286957
0.87235767
0.87184590
0.87133252
0.87081931
0.87030498
0.86979033
0.86927450
0.86875840
0.86824156
0.86772443
0.86720657
0.86668752
0.86616818
0.86564854
0.86512726
0.86460608
0.86408374
0.86356110
0.86303812
0.86251350
0.86198900
0.86146377
0.86093727
0.86041096
0.85988338
0.85935548
0.85882639
0.85829693
0.85776669
0.85723613
0.85670385
0.85617171
0.85563877
0.85510504
0.85457005
0.85403518
0.85349947
0.85296300
0.85242572
0.85188716
0.85134821
0.85080896
0.85026885
0.84972796
0.84918620
0.84864366
0.84810072
0.84755605
0.84701144
0.84646601
0.84591973
0.84537309
0.84482512
0.84427679
0.84372761
0.84317759
0.84262670
0.84207545
0.84152333
0.84096987
0.84041647
0.83986177
0.83930619
0.83875019
0.83819287
0.83763516
0.83707653
0.83651751
0.83595716
0.83539637
0.83483424
0.83427167
0.83370870
0.83314484
0.83258008
0.83201392
0.83144741
0.83087994
0.83031201
0.82974272
0.82917352
0.82860291
0.82803137
0.82745887
0.82688550
0.82631119
0.82573693
0.82516127
0.82458469
0.82400712
0.82342963
0.82285023
0.82227036
0.82168958
0.82110833
0.82052612
0.81994245
0.81935886
0.81877379
0.81818725
0.81760031
0.81701335
0.81642495
0.81583506
0.81524525
0.81465394
0.81406265
0.81346938
0.81287514
0.81228144
0.81168522
0.81108955
0.81049189
0.80989318
0.80929453
0.80869442
0.80809378
0.80749160
0.80688949
0.80628536
0.80568124
0.80507557
0.80446942
0.80386173
0.80325409
0.80264435
0.80203467
0.80142342
0.80081163
0.80019887
0.79958508
0.79897074
0.79835488
0.79773847
0.79712052
0.79650257
0.79588309
0.79526250
0.79464141
0.79401877
0.79339557
0.79277188
0.79214606
0.79152024
0.79089336
0.79026485
0.78963639
0.78900630
0.78837564
0.78774340
0.78711065
0.78647681
0.78584133
0.78520583
0.78456931
0.78393164
0.78329293
0.78265257
0.78201218
0.78137019
0.78072761
0.78008393
0.77943862
0.77879272
0.77814629
0.77749875
0.77685010
0.77620032
0.77554891
0.77489690
0.77424428
0.77359008
0.77293521
0.77227986
0.77162279
0.77096459
0.77030577
0.76964588
0.76898479
0.76832261
0.76765929
0.76699535
0.76632973
0.76566349
0.76499609
0.76432760
0.76365849
0.76298761
0.76231618
0.76164357
0.76096980
0.76029492
0.75961935
0.75894212
0.75826420
0.75758516
0.75690494
0.75622353
0.75554094
0.75485832
0.75417396
0.75348841
0.75280160
0.75211366
0.75142513
0.75073596
0.75004497
0.74935284
0.74865944
0.74796482
0.74727024
0.74657389
0.74587563
0.74517677
0.74447670
0.74377666
0.74307476
0.74237101
0.74166730
0.74096171
0.74025553
0.73954748
0.73883940
0.73812887
0.73741773
0.73670656
0.73599293
0.73527799
0.73456315
0.73384634
0.73312893
0.73240968
0.73168910
0.73096856
0.73024617
0.72952310
0.72879811
0.72807185
0.72734497
0.72661682
0.72588805
0.72515669
0.72442602
0.72369274
0.72295885
0.72222360
0.72148779
0.72074936
0.72001157
0.71927122
0.71853023
0.71778788
0.71704490
0.71629934
0.71555442
0.71480759
0.71405871
0.71330986
0.71255903
0.71180762
0.71105483
0.71030004
0.70954529
0.70878784
0.70803044
0.70727171
0.70651096
0.70575019
0.70498815
0.70422408
0.70345868
0.70269255
0.70192516
0.70115641
0.70038625
0.69961551
0.69884335
0.69806920
0.69729433
0.69651881
0.69574122
0.69496234
0.69418273
0.69340175
0.69261941
0.69183641
0.69105132
0.69026486
0.68947774
0.68868924
0.68789936
0.68710881
0.68631688
0.68552278
0.68472735
0.68393126
0.68313443
0.68233555
0.68153600
0.68073498
0.67993256
0.67912881
0.67832359
0.67751769
0.67670972
0.67590100
0.67509087
0.67427940
0.67346718
0.67265280
0.67183774
0.67102126
0.67020335
0.66938402
0.66856326
0.66774174
0.66691812
0.66609381
0.66526806
0.66444231
0.66361369
0.66278354
0.66195279
0.66112052
0.66028687
0.65945169
0.65861514
0.65777859
0.65693981
0.65609966
0.65525797
0.65441481
0.65357097
0.65272566
0.65187888
0.65102985
0.65018013
0.64933049
0.64847782
0.64762445
0.64676881
0.64591319
0.64505538
0.64419686
0.64333678
0.64247530
0.64161152
0.64074776
0.63988180
0.63901505
0.63814680
0.63727713
0.63640508
0.63553312
0.63465893
0.63378469
0.63290748
0.63202868
0.63114998
0.63026896
0.62938804
0.62850398
0.62761839
0.62673283
0.62584427
0.62495566
0.62406478
0.62317392
0.62227998
0.62138614
0.62048912
0.61959212
0.61869284
0.61779360
0.61689115
0.61598889
0.61508501
0.61417791
0.61327176
0.61236247
0.61145238
0.61054157
0.60962751
0.60871358
0.60779724
0.60688103
0.60596241
0.60504221
0.60412044
0.60319872
0.60227296
0.60134817
0.60042087
0.59949207
0.59856169
0.59763051
0.59669859
0.59576346
0.59482759
0.59389091
0.59295265
0.59201113
0.59106967
0.59012749
0.58918283
0.58823578
0.58728896
0.58634037
0.58539017
0.58443924
0.58348581
0.58252989
0.58157413
0.58061665
0.57965765
0.57869703
0.57773559
0.57677172
0.57580712
0.57484080
0.57387204
0.57290246
0.57193134
0.57095939
0.56998590
0.56901068
0.56803382
0.56705532
0.56607526
0.56509438
0.56411094
0.56312676
0.56214093
0.56115344
0.56016522
0.55917443
0.55818289
0.55718970
0.55619476
0.55519824
0.55420098
0.55320197
0.55220138
0.55119818
0.55019416
0.54918855
0.54818211
0.54717314
0.54616429
0.54515281
0.54413975
0.54312490
0.54210837
0.54109024
0.54007222
0.53905157
0.53802922
0.53700517
0.53597943
0.53495390
0.53392476
0.53289487
0.53186327
0.53083085
0.52979584
0.52876009
0.52772253
0.52668336
0.52564247
0.52460075
0.52355642
0.52251028
0.52146437
0.52041586
0.51936553
0.51831445
0.51726076
0.51620524
0.51514996
0.51409107
0.51303233
0.51197085
0.51090764
0.50984468
0.50877798
0.50771144
0.50664225
0.50557232
0.50449963
0.50342620
0.50235092
0.50127499
0.50019528
0.49911574
0.49803353
0.49695149
0.49586575
0.49478019
0.49369092
0.49260182
0.49151003
0.49041842
0.48932401
0.48822783
0.48712987
0.48603023
0.48492975
0.48382842
0.48272344
0.48161761
0.48051093
0.47940152
0.47829137
0.47717943
0.47606569
0.47495006
0.47383378
0.47271361
0.47159469
0.47047302
