# corrn_curve_quartic
-0.941593466
-0.925704298
-0.909869392
-0.894132048
-0.878448746
-0.862863496
-0.847352227
-0.831916971
-0.816555280
-0.801268062
-0.786077085
-0.770939164
-0.755895748
-0.740904085
-0.726007392
-0.711183691
-0.696432774
-0.681754431
-0.667168529
-0.652634607
-0.638193558
-0.623803220
-0.609524811
-0.595296711
-0.581140558
-0.567054089
-0.553038130
-0.539112679
-0.525238025
-0.511452255
-0.497735972
-0.484088971
-0.470511050
-0.457002004
-0.443580155
-0.430208158
-0.416923730
-0.403707170
-0.390539173
-0.377456895
-0.364442839
-0.351513718
-0.338632564
-0.325819018
-0.313089533
-0.300426132
-0.287828619
-0.275278563
-0.262830463
-0.250429426
-0.238093486
-0.225840300
-0.213633873
-0.201508735
-0.189448611
-0.177452419
-0.165519094
-0.153650186
-0.141843767
-0.130101367
-0.118455110
-0.106837416
-0.095299141
-0.083823077
-0.072393214
-0.061057645
-0.049767062
-0.038554308
-0.027386339
-0.016294829
-0.005264833
0.005704653
0.016614614
0.027463640
0.038252720
0.048967153
0.059637767
0.070232714
0.080769409
0.091247257
0.101680925
0.112027157
0.122328826
0.132573147
0.142759547
0.152873394
0.162915861
0.172929852
0.182872092
0.192757495
0.202586965
0.212345639
0.222061701
0.231708211
0.241298245
0.250840388
0.260320085
0.269737636
0.279113272
0.288414149
0.297667283
0.306859228
0.316010417
0.325094101
0.334124623
0.343107422
0.352023564
0.360887139
0.369690543
0.378448238
0.387158991
0.395805069
0.404398241
0.412933668
0.421423491
0.429861562
0.438241885
0.446570266
0.454842621
0.463063453
0.471233545
0.479365029
0.487428138
0.495446999
0.503410522
0.511317808
0.519181899
0.526990173
0.534749787
0.542459759
0.550121400
0.557728690
0.565293062
0.572808478
0.580270711
0.587679474
0.595045915
0.602359289
0.609625234
0.616838584
0.624010731
0.631130148
0.638192932
0.645219175
0.652194401
0.659122966
0.666006058
0.672842820
0.679634428
0.686375546
0.693070896
0.699721634
0.706327420
0.712883561
0.719390316
0.725853211
0.732276200
0.738655103
0.744985388
0.751271968
0.757506212
0.763705919
0.769858289
0.775967190
0.782033687
0.788048547
0.794029414
0.799963932
0.805856277
0.811706169
0.817506447
0.823268985
0.828990030
0.834661301
0.840299882
0.845893275
0.851445849
0.856954070
0.862421424
0.867852512
0.873235778
0.878583074
0.883886174
0.889146109
0.894374382
0.899551677
0.904697167
0.909803996
0.914864385
0.919889883
0.924876838
0.929818028
0.934728396
0.939590144
0.944424541
0.949210418
0.953962701
0.958673711
0.963354494
0.967988078
0.972591666
0.977151618
0.981678037
0.986161614
0.990615606
0.995026811
0.999408608
1.003744770
1.008051757
1.012316795
1.016552834
1.020744178
1.024903955
1.029031601
1.033118321
1.037173809
1.041191505
1.045172231
1.049124468
1.053037079
1.056912960
1.060760961
1.064569657
1.068344990
1.072092425
1.075798621
1.079474669
1.083117904
1.086726026
1.090301382
1.093841725
1.097355156
1.100831497
1.104275670
1.107685770
1.111069092
1.114416092
1.117731764
1.121016242
1.124271856
1.127491904
1.130681202
1.133839881
1.136965723
1.140063582
1.143131216
1.146166474
1.149171814
1.152145353
1.155089052
1.158003485
1.160888340
1.163744183
1.166568586
1.169368268
1.172135110
1.174871216
1.177580855
1.180259854
1.182910806
1.185531658
1.188126506
1.190691549
1.193229077
1.195738831
1.198221129
1.200674247
1.203102028
1.205501099
1.207871282
1.210216655
1.212533430
1.214823870
1.217087750
1.219325535
1.221533839
1.223717846
1.225875991
1.228008393
1.230113585
1.232193315
1.234249255
1.236278402
1.238279422
1.240257029
1.242209957
1.244138028
1.246041511
1.247920665
1.249771261
1.251601737
1.253405504
1.255186552
1.256943885
1.258673554
1.260382298
1.262067447
1.263729376
1.265365592
1.266979980
1.268571397
1.270137705
1.271682390
1.273205634
1.274703073
1.276180334
1.277634352
1.279065067
1.280474996
1.281862935
1.283228172
1.284571781
1.285893773
1.287193475
1.288472882
1.289729199
1.290965443
1.292181674
1.293374336
1.294548126
1.295699652
1.296831513
1.297942177
1.299033451
1.300103854
1.301153378
1.302183898
1.303193785
1.304184849
1.305154864
1.306106119
1.307037406
1.307948804
1.308842491
1.309715836
1.310570974
1.311406700
1.312223780
1.313021714
1.313801296
1.314563667
1.315306088
1.316031536
1.316737940
1.317425953
1.318097698
1.318750291
1.319385345
1.320003852
1.320603653
1.321186687
1.321752972
1.322301410
1.322832577
1.323348049
1.323845670
1.324326743
1.324791292
1.325239792
1.325671651
1.326087037
1.326486322
1.326870213
1.327237379
1.327589054
1.327924768
1.328244946
1.328550116
1.328839195
1.329113251
1.329371934
1.329615557
1.329844043
1.330057999
1.330257008
1.330441197
1.330610832
1.330765866
1.330906646
1.331033056
1.331145284
1.331243439
1.331327540
1.331397869
1.331454291
1.331497024
1.331526157
1.331541777
1.331543983
1.331532879
1.331508557
1.331471106
1.331420660
1.331357283
1.331281066
1.331192089
1.331090456
1.330976340
1.330849850
1.330711009
1.330559760
1.330396317
1.330220883
1.330033451
1.329834076
1.329622860
1.329400067
1.329165640
1.328919826
1.328662345
1.328393681
1.328113503
1.327822329
1.327520030
1.327207162
1.326883139
1.326547995
1.326202308
1.325845957
1.325479548
1.325102379
1.324714446
1.324316498
1.323908898
1.323490488
1.323062315
1.322624137
1.322176388
1.321718811
1.321251156
1.320774495
1.320287915
1.319791827
1.319287105
1.318772617
1.318248499
1.317716446
1.317174427
1.316623428
1.316064321
1.315495971
1.314919709
1.314333853
1.313739421
1.313137344
1.312526344
1.311907938
1.311280266
1.310645365
1.310001829
1.309350741
1.308691156
1.308024704
1.307349851
1.306667833
1.305977602
1.305280806
1.304575445
1.303863687
1.303144054
1.302417632
1.301683469
1.300943255
1.300196565
1.299441108
1.298680506
1.297911853
1.297137629
1.296357321
1.295568533
1.294775043
1.293973813
1.293167362
1.292355276
1.291535638
1.290710375
1.289879699
1.289042244
1.288199523
1.287350818
1.286496936
1.285636670
1.284771304
1.283900299
1.283023029
1.282141637
1.281254814
1.280362627
1.279465142
1.278561711
1.277654538
1.276742272
1.275825629
1.274903373
1.273975486
1.273044156
1.272108135
1.271167341
1.270222658
1.269272733
1.268318225
1.267360028
1.266397530
1.265431407
1.264460272
1.263485718
1.262507043
1.261525085
1.260538356
1.259548395
1.258554642
1.257557081
1.256556484
1.255550693
1.254542864
1.253531393
1.252516499
1.251498080
1.250477167
1.249453664
1.248426089
1.247395311
1.246362207
1.245326021
1.244286068
1.243244631
1.242199543
1.241151602
1.240101698
1.239049060
1.237993744
1.236935806
1.235876901
1.234814734
1.233750032
1.232683020
1.231614431
1.230542795
1.229469696
1.228395279
1.227317976
1.226239381
1.225157919
1.224075361
1.222992628
1.221906325
1.220818228
1.219729256
1.218639379
1.217547088
1.216454085
1.215358683
1.214263461
1.213166029
1.212067225
1.210968761
1.209867277
1.208765536
1.207663418
1.206559303
1.205455088
1.204350560
1.203243477
1.202136269
1.201029958
1.199921060
1.198813160
1.197703652
1.196593382
1.195483460
1.194372959
1.193262727
1.192151214
1.191040153
1.189927727
1.188815936
1.187704649
1.186591425
1.185480576
1.184367792
1.183256675
1.182143804
1.181033401
1.179921423
1.178810314
1.177700119
1.176589282
1.175479536
1.174369148
1.173260827
1.172151062
1.171043361
1.169936967
1.168829349
1.167723123
1.166617356
1.165513152
1.164409490
1.163305617
1.162204226
1.161103678
1.160002955
1.158903953
1.157806708
1.156708620
1.155613252
1.154518880
1.153425546
1.152332413
1.151242062
1.150152953
1.149064951
1.147977396
1.146892858
1.145809541
1.144727570
1.143647071
1.142567040
1.141489425
1.140414087
1.139340281
1.138268046
1.137196556
1.136128433
1.135061129
1.133996400
1.132934277
1.131873083
1.130814478
1.129756963
1.128701341
1.127648495
1.126597610
1.125549481
1.124503379
1.123459422
1.122417476
1.121378497
1.120340926
1.119306303
1.118273906
1.117243769
1.116216755
1.115191318
1.114168899
1.113148950
1.112131421
1.111117162
1.110104566
1.109095299
1.108088494
1.107084344
1.106083608
1.105086229
1.104090704
1.103097952
1.102107842
1.101120566
1.100136789
1.099155820
1.098177768
1.097203293
1.096231710
1.095262264
1.094296553
1.093333821
1.092374095
1.091418952
1.090466013
1.089516237
1.088569574
1.087627504
1.086687144
1.085750663
1.084816717
1.083888206
1.082961528
1.082038070
1.081118755
1.080203452
1.079290772
1.078382223
1.077477089
1.076575394
1.075677164
1.074783148
1.073891918
1.073004946
1.072122248
1.071242410
1.070366177
1.069494209
1.068625959
1.067762010
1.066901118
1.066044568
1.065191126
1.064342066
1.063497471
1.062655368
1.061819068
1.060985243
1.060156632
1.059330551
1.058510385
1.057692796
1.056879814
1.056070789
1.055266397
1.054464693
1.053668897
1.052875899
1.052088245
1.051304592
1.050523816
1.049748991
1.048977087
1.048210520
1.047448108
1.046688692
1.045935265
1.045184815
1.044439818
1.043699058
1.042961410
1.042229724
1.041501787
1.040778156
1.040059438
1.039345054
1.038634440
1.037928777
1.037228013
1.036531699
1.035838660
1.035151691
1.034468595
1.033790565
1.033115839
1.032447249
1.031782654
1.031122512
1.030467429
1.029815808
1.029170333
1.028528881
1.027891999
1.027260219
1.026633029
1.026009422
1.025391965
1.024778577
1.024170380
1.023566829
1.022967888
1.022373668
1.021784083
1.021199721
1.020619059
1.020044114
1.019474312
1.018908772
1.018348437
1.017792439
1.017241613
1.016696004
1.016154723
1.015618626
1.015086973
1.014560474
1.014038829
1.013522428
1.013010429
1.012503643
1.012001739
1.011504682
1.011013251
1.010525870
1.010043798
1.009566562
1.009094246
1.008626781
1.008164594
1.007706966
1.007254584
1.006807813
1.006365290
1.005927979
1.005495307
1.005067890
1.004645374
1.004228522
1.003815924
1.003408615
1.003006225
1.002608824
1.002216677
1.001829522
1.001446984
1.001069766
1.000697797
1.000330526
0.999968506
0.999611759
0.999259696
0.998912334
0.998570534
0.998233719
0.997901893
0.997575059
0.997253484
0.996936638
0.996625306
0.996318455
0.996016833
0.995720479
0.995428878
0.995142255
0.994861126
0.994584735
0.994313568
0.994047195
0.993786234
0.993529858
0.993278878
0.993032683
0.992791484
0.992555476
0.992324458
0.992098613
0.991877385
0.991661686
0.991450611
0.991244861
0.991044064
0.990847929
0.990657249
0.990471205
0.990290299
0.990114354
0.989943497
0.989777591
0.989616515
0.989460637
0.989309447
0.989163459
0.989022390
0.988886137
0.988755032
0.988628840
0.988507360
0.988390994
0.988279621
0.988172966
0.988071371
0.987974668
0.987882694
0.987795823
0.987713740
0.987636591
0.987564171
0.987496729
0.987434174
0.987376401
0.987323422
0.987275349
0.987232087
0.987193634
0.987160005
0.987131116
0.987107058
0.987087773
0.987073254
0.987063494
0.987058488
0.987058221
0.987062691
0.987071881
0.987085786
0.987104381
0.987127688
0.987155662
0.987188308
0.987225624
0.987267561
0.987314176
0.987365392
0.987421231
0.987481680
0.987546683
0.987616395
0.987690573
0.987769321
0.987852556
0.987940408
0.988032720
0.988129562
0.988230906
0.988336752
0.988447086
0.988561909
0.988681088
0.988804716
0.988932793
0.989065285
0.989202203
0.989343404
0.989488852
0.989638806
0.989793119
0.989951780
0.990114637
0.990281794
0.990453415
0.990628897
0.990808934
0.990993076
0.991181623
0.991374241
0.991570907
0.991771784
0.991977001
0.992186213
0.992399414
0.992616914
0.992838556
0.993064290
0.993293744
0.993527465
0.993765224
0.994006839
0.994252684
0.994502329
0.994755747
0.995013352
0.995275116
0.995540194
0.995809599
0.996082726
0.996359480
0.996640337
0.996924585
0.997213126
0.997505486
0.997801141
0.998100851
0.998403803
0.998710986
0.999021389
0.999335999
0.999654053
0.999975224
1.000300558
1.000629268
1.000961583
1.001297196
1.001636660
1.001979379
1.002325621
1.002675068
1.003027993
1.003384988
1.003744541
1.004108098
1.004474434
1.004844777
1.005217559
1.005593992
1.005974031
1.006356745
1.006742694
1.007132588
1.007524709
1.007920673
1.008319518
1.008721179
1.009126323
1.009534234
1.009945237
1.010358955
1.010776429
1.011196214
1.011618996
1.012045118
1.012473831
1.012905140
1.013339315
1.013776744
1.014216694
1.014659440
1.015104651
1.015552644
1.016004131
1.016457621
1.016913782
1.017372275
1.017833426
1.018297210
1.018764365
1.019233347
1.019704525
1.020178560
1.020654777
1.021133434
1.021614547
1.022097675
1.022583621
1.023071569
1.023562669
1.024055253
1.024549751
1.025046903
1.025545914
1.026047528
1.026550946
1.027056091
1.027563761
1.028073585
1.028585050
1.029098566
1.029614062
1.030131600
1.030650659
1.031172106
1.031694159
1.032218949
1.032745594
1.033274066
1.033803879
1.034335963
1.034869284
1.035404314
1.035940609
1.036478971
1.037018072
1.037559183
1.038101902
1.038646155
1.039191864
1.039738621
1.040286347
1.040835957
1.041386949
1.041939245
1.042492001
1.043046475
1.043602641
1.044159650
1.044716844
1.045276167
1.045836141
1.046397702
1.046958926
1.047522112
1.048086355
1.048650547
1.049216220
1.049783246
1.050349728
1.050918039
1.051487116
1.052056038
1.052626202
1.053197082
1.053768102
1.054340317
1.054912158
1.055485078
1.056059047
1.056632091
1.057206564
1.057780491
1.058355830
1.058930556
1.059506178
1.060081066
1.060657233
1.061232697
1.061809322
1.062385174
1.062961618
1.063537220
1.064113895
1.064689607
1.065265772
1.065841455
1.066417570
1.066993083
1.067568456
1.068143156
1.068717646
1.069292391
1.069866355
1.070439502
1.071013294
1.071585749
1.072158226
1.072729742
1.073300313
1.073871292
1.074440756
1.075009561
1.075578266
1.076145248
1.076712054
1.077277610
1.077842815
1.078406745
1.078969806
1.079531469
1.080093167
1.080652903
1.081211619
1.081769277
1.082326323
1.082881263
1.083435079
1.083987636
1.084538943
1.085089441
1.085638177
1.086185021
1.086730508
1.087274504
1.087817063
1.088358052
1.088897054
1.089435347
1.089971106
1.090505184
1.091037540
1.091567672
1.092096467
1.092622960
1.093147572
1.093670264
1.094190994
1.094709267
1.095225500
1.095740102
1.096251725
1.096761589
1.097269247
1.097774259
1.098277380
1.098777732
1.099275758
1.099770938
1.100264056
1.100754291
1.101242376
1.101727496
1.102209574
1.102688993
1.103165711
1.103640100
1.104111242
1.104579595
1.105044707
1.105507271
1.105966069
1.106422273
1.106875433
1.107325545
1.107772487
1.108216254
1.108656067
1.109092973
1.109526575
1.109956869
1.110383022
1.110806455
1.111226075
1.111642138
1.112054311
1.112462878
1.112868152
1.113269019
1.113666501
1.114060543
1.114450370
1.114835710
1.115217441
1.115595541
1.115968970
1.116338675
1.116703669
1.117065132
1.117422402
1.117774531
1.118123283
1.118466824
1.118806572
1.119141929
1.119472236
1.119798301
1.120119557
1.120436496
1.120748236
1.121055808
1.121358129
1.121655935
1.121948651
1.122236746
1.122519414
1.122797611
1.123070301
1.123338170
1.123600716
1.123858085
1.124110251
1.124356970
1.124598587
1.124834669
1.125065542
1.125290592
1.125510336
1.125724562
1.125933017
1.126136004
1.126333150
1.126524401
1.126710194
1.126889852
1.127063643
1.127231663
1.127393423
1.127549312
1.127699016
1.127842722
1.127980140
1.128111348
1.128236403
1.128354941
1.128467117
1.128572900
1.128672219
1.128765113
1.128851299
1.128930948
1.129003881
1.129070113
1.129129638
1.129182307
1.129228081
1.129266959
1.129298888
1.129323815
1.129341701
1.129352462
1.129356065
1.129352462
1.129341606
1.129323466
1.129297955
1.129265033
1.129224682
1.129176831
1.129121417
1.129058397
1.128987712
1.128909375
1.128823207
1.128729291
1.128627508
1.128517813
1.128400243
1.128274541
1.128140877
1.127999090
1.127849124
1.127690939
1.127524589
1.127349782
1.127166712
1.126975220
1.126775236
1.126566703
1.126349566
1.126124163
1.125889881
1.125646846
1.125394977
1.125134264
1.124864876
1.124586755
1.124299368
1.124002933
1.123697341
1.123382561
1.123059126
1.122726151
1.122383494
1.122031743
1.121670538
1.121300496
1.120920575
1.120530692
1.120131852
1.119722937
1.119304622
1.118876099
1.118438439
1.117990087
1.117532141
1.117064955
1.116586870
1.116098575
1.115601007
1.115092685
1.114574513
1.114045544
1.113506089
1.112957135
1.112397204
1.111827146
1.111245923
1.110653986
1.110051824
1.109438849
1.108815571
1.108180227
1.107535635
1.106878839
1.106211542
1.105533035
1.104844009
1.104142460
1.103431443
1.102707826
1.101973432
1.101227483
1.100470675
1.099700949
1.098921597
1.098129908
1.097325647
1.096511021
1.095683773
1.094845415
1.093994992
1.093131732
1.092257934
1.091370368
1.090472185
1.089561730
1.088638099
1.087703671
1.086756893
1.085796743
1.084824014
1.083839452
1.082842298
1.081832402
1.080809608
1.079774985
1.078727361
1.077665896
1.076592260
1.075506523
1.074406648
1.073293656
1.072168310
1.071029643
1.069877593
1.068713162
1.067534169
1.066341604
1.065136506
1.063917734
1.062685225
1.061440055
1.060181047
1.058906855
1.057618787
1.056317855
1.055003913
1.053674743
1.052332581
1.050976036
1.049605165
1.048220031
1.046820318
1.045407382
1.043978711
1.042536586
1.041079775
1.039608350
1.038123338
1.036622098
1.035107303
1.033577526
1.032032702
1.030472765
1.028897652
1.027308607
1.025702955
1.024083415
1.022448464
1.020800914
1.019134971
1.017453264
1.015757594
1.014046056
1.012318895
1.010575731
1.008816816
1.007045021
1.005255596
1.003450253
1.001628598
0.999790727
0.997938278
0.996069510
0.994184357
0.992281002
0.990362861
0.988431693
0.986480343
0.984514082
0.982529238
0.980531036
0.978514299
0.976482475
0.974433466
0.972367580
0.970282644
0.968184154
0.966066670
0.963933621
0.961783198
0.959615533
0.957428144
0.955227206
0.953006811
0.950772419
0.948516561
0.946242645
0.943955033
0.941647367
0.939325968
0.936982215
0.934620299
0.932244323
0.929846125
0.927433574
0.925000625
0.922553500
0.920083562
0.917599605
0.915092402
0.912570876
0.910028477
0.907471717
0.904891325
0.902296975
0.899683384
0.897045846
0.894396461
0.891723201
0.889032867
0.886325690
0.883594072
0.880848013
0.878079864
0.875297241
0.872492387
0.869667792
0.866823387
0.863964142
0.861077265
0.858178399
0.855256533
0.852314806
0.849352879
0.846373169
0.843375935
0.840353031
0.837312463
0.834253932
0.831174844
0.828069656
0.824949202
0.821810893
0.818648841
0.815463211
0.812262808
0.809040791
0.805797680
0.802536438
0.799250941
0.795941060
0.792615943
0.789269099
0.785901075
0.782511489
0.779103125
0.775670215
0.772218739
0.768745127
0.765246696
0.761729213
0.758190023
0.754631712
0.751051594
0.747448929
0.743823975
0.740176660
0.736507251
0.732818433
0.729103613
0.725369619
0.721612936
0.717833490
0.714034755
0.710209583
0.706365016
0.702497432
0.698606395
0.694692553
0.690759149
0.686802104
0.682822081
0.678814898
0.674787564
0.670737035
0.666666289
0.662568418
0.658454071
0.654312066
0.650146547
0.645956662
0.641742723
0.637505050
0.633250751
0.628968254
0.624661446
0.620330252
0.615974596
0.611602603
0.607197842
0.602772539
0.598322517
0.593851473
0.589351806
0.584831431
0.580285654
0.575715248
0.571119714
0.566502874
0.561856874
0.557185078
0.552496652
0.547778820
0.543035002
0.538270039
0.533475376
0.528654489
0.523816848
0.518944686
0.514055257
0.509135220
0.504189071
0.499226074
0.494227518
0.489211586
0.484165056
0.479096846
0.473997365
0.468876097
0.463727713
0.458557970
0.453351700
0.448127861
0.442872674
0.437599909
0.432290648
0.426963750
0.421600104
0.416218761
0.410805514
0.405374563
0.399911041
0.394419969
0.388901268
0.383355383
0.377786445
0.372194447
0.366565052
0.360912440
0.355236603
0.349527838
0.343796278
0.338036486
0.332248381
0.326431336
0.320591887
0.314712849
0.308821292
0.302896087
