# corrn_curve_quadratic
1.077989379
1.078333966
1.078677825
1.079020013
1.079361470
1.079701235
1.080039825
1.080377193
1.080713386
1.081048381
1.081381695
1.081714270
1.082045192
1.082375397
1.082703927
1.083031262
1.083357402
1.083682346
1.084005651
1.084328207
1.084649103
1.084969271
1.085287343
1.085604687
1.085920817
1.086235777
1.086549546
1.086861670
1.087173034
1.087482779
1.087791337
1.088098706
1.088404886
1.088709878
1.089013263
1.089315880
1.089616871
1.089916678
1.090215733
1.090513190
1.090809440
1.091104097
1.091398000
1.091690697
1.091981807
1.092271734
1.092560481
1.092848464
1.093134428
1.093419629
1.093703649
1.093986076
1.094267734
1.094547823
1.094826713
1.095104425
1.095380979
1.095656335
1.095930532
1.096203531
1.096474580
1.096745246
1.097014341
1.097282261
1.097549376
1.097814557
1.098078952
1.098341788
1.098603836
1.098864346
1.099123667
1.099381815
1.099638811
1.099894617
1.100149251
1.100402362
1.100654674
1.100905428
1.101155033
1.101403469
1.101651081
1.101896837
1.102141751
1.102385515
1.102628111
1.102869185
1.103108760
1.103347856
1.103585436
1.103821851
1.104057118
1.104290877
1.104523799
1.104755234
1.104985490
1.105214770
1.105442720
1.105669341
1.105895117
1.106119253
1.106342394
1.106564212
1.106785197
1.107004697
1.107223056
1.107440400
1.107656266
1.107870992
1.108084389
1.108296802
1.108508199
1.108718145
1.108926920
1.109134403
1.109340884
1.109546211
1.109750233
1.109953087
1.110154668
1.110355084
1.110554348
1.110752752
1.110949567
1.111145375
1.111339904
1.111533125
1.111725355
1.111916279
1.112106069
1.112294698
1.112482192
1.112668400
1.112853599
1.113037635
1.113220402
1.113401889
1.113582364
1.113761560
1.113939611
1.114116387
1.114292162
1.114466651
1.114639753
1.114811957
1.114982904
1.115152696
1.115321360
1.115488870
1.115655251
1.115820367
1.115984332
1.116147169
1.116308866
1.116469305
1.116628487
1.116786545
1.116943570
1.117099457
1.117254092
1.117407589
1.117559736
1.117710963
1.117860952
1.118009796
1.118157516
1.118303883
1.118449324
1.118593534
1.118736610
1.118878542
1.119019153
1.119158728
1.119297170
1.119434278
1.119570459
1.119705408
1.119839227
1.119971828
1.120103290
1.120233721
1.120362840
1.120490927
1.120617782
1.120743426
1.120868130
1.120991431
1.121113781
1.121235013
1.121354940
1.121473832
1.121591599
1.121708068
1.121823586
1.121937733
1.122051004
1.122162900
1.122273766
1.122383421
1.122492117
1.122599458
1.122705839
1.122810941
1.122914994
1.123017782
1.123119604
1.123220156
1.123319740
1.123417984
1.123515257
1.123611269
1.123706307
1.123800016
1.123892688
1.123984307
1.124074673
1.124163999
1.124252138
1.124339104
1.124425081
1.124509822
1.124593388
1.124675968
1.124757312
1.124837546
1.124916782
1.124994736
1.125071638
1.125147430
1.125222061
1.125295578
1.125367932
1.125439286
1.125509430
1.125578462
1.125646341
1.125713209
1.125778876
1.125843437
1.125906892
1.125969284
1.126030482
1.126090576
1.126149567
1.126207410
1.126264193
1.126319873
1.126374408
1.126427841
1.126480137
1.126531328
1.126581423
1.126630413
1.126678306
1.126725060
1.126770784
1.126815342
1.126858769
1.126901130
1.126942358
1.126982492
1.127021500
1.127059440
1.127096255
1.127131978
1.127166602
1.127200130
1.127232539
1.127263877
1.127294099
1.127323202
1.127351237
1.127378155
1.127403983
1.127428717
1.127452360
1.127474877
1.127496320
1.127516673
1.127535935
1.127554093
1.127571162
1.127587153
1.127602042
1.127615822
1.127628525
1.127640142
1.127650670
1.127660111
1.127668464
1.127675715
1.127681895
1.127686982
1.127690986
1.127693904
1.127695734
1.127696482
1.127696146
1.127694726
1.127692226
1.127688642
1.127683975
1.127678235
1.127671410
1.127663497
1.127654522
1.127644455
1.127633314
1.127621104
1.127607805
1.127593427
1.127577981
1.127561457
1.127543856
1.127525190
1.127505433
1.127484631
1.127462736
1.127439748
1.127415737
1.127390615
1.127364455
1.127337202
1.127308897
1.127279496
1.127249042
1.127217542
1.127184942
1.127151298
1.127116552
1.127080789
1.127043931
1.127006027
1.126967084
1.126927010
1.126885929
1.126843747
1.126800528
1.126756241
1.126710921
1.126664531
1.126617003
1.126568519
1.126518893
1.126468274
1.126416629
1.126363802
1.126310028
1.126255190
1.126199206
1.126142284
1.126084255
1.126025121
1.125965011
1.125903881
1.125841556
1.125778308
1.125713995
1.125648627
1.125582147
1.125514657
1.125446155
1.125376600
1.125305876
1.125234252
1.125161514
1.125087780
1.125012983
1.124937012
1.124860165
1.124782196
1.124703231
1.124623211
1.124542198
1.124460004
1.124376817
1.124292640
1.124207403
1.124121185
1.124033847
1.123945517
1.123856141
1.123765707
1.123674297
1.123581687
1.123488174
1.123393604
1.123297983
1.123201319
1.123103672
1.123004977
1.122905232
1.122804438
1.122702673
1.122599862
1.122496002
1.122391087
1.122285133
1.122178214
1.122070325
1.121961400
1.121851336
1.121740235
1.121628167
1.121515063
1.121400905
1.121285703
1.121169547
1.121052358
1.120934209
1.120814925
1.120694692
1.120573324
1.120451008
1.120327651
1.120203437
1.120078097
1.119951618
1.119824188
1.119695728
1.119566420
1.119435984
1.119304397
1.119171884
1.119038532
1.118903934
1.118768404
1.118631837
1.118494341
1.118355811
1.118216147
1.118075645
1.117934009
1.117791339
1.117647858
1.117503221
1.117357448
1.117210984
1.117063248
1.116914490
1.116764921
1.116614215
1.116462704
1.116309925
1.116156126
1.116001525
1.115845774
1.115689238
1.115531428
1.115372836
1.115213092
1.115052446
1.114890646
1.114728072
1.114564331
1.114399706
1.114233925
1.114067365
1.113899532
1.113730923
1.113561170
1.113390512
1.113218709
1.113046138
1.112872681
1.112697792
1.112522291
1.112345492
1.112167948
1.111989524
1.111809656
1.111629191
1.111447421
1.111264902
1.111081522
1.110896834
1.110711256
1.110524821
1.110337206
1.110148735
1.109959231
1.109768860
1.109577336
1.109384932
1.109191511
1.108996921
1.108801621
1.108605307
1.108407978
1.108209635
1.108010120
1.107809905
1.107608677
1.107406579
1.107203326
1.106998898
1.106793764
1.106587634
1.106380477
1.106172473
1.105963310
1.105753119
1.105542083
1.105330055
1.105117168
1.104903103
1.104688199
1.104472286
1.104255536
1.104037608
1.103818827
1.103599056
1.103378279
1.103156653
1.102933686
1.102710065
1.102485422
1.102259791
1.102033137
1.101805676
1.101577375
1.101347889
1.101117400
1.100886090
1.100653778
1.100420298
1.100186149
1.099950831
1.099714510
1.099477376
1.099239242
1.099000107
1.098759971
1.098519199
1.098277255
1.098034294
1.097790353
1.097545588
1.097299650
1.097052889
1.096805328
1.096556593
1.096307039
1.096056290
1.095804743
1.095552603
1.095299066
1.095044533
1.094789208
1.094533072
1.094275758
1.094017656
1.093758354
1.093498453
1.093237372
1.092975298
1.092712631
1.092448552
1.092183713
1.091918073
1.091651231
1.091383633
1.091115216
1.090845424
1.090574834
1.090303689
1.090031122
1.089758001
1.089483675
1.089208339
1.088932257
1.088655188
1.088377333
1.088098292
1.087818488
1.087537452
1.087255677
1.086973120
1.086689149
1.086404851
1.086119114
1.085832851
1.085545169
1.085257148
1.084967729
1.084677536
1.084386571
1.084094414
1.083801510
1.083507390
1.083212761
1.082916679
1.082620066
1.082322714
1.082023928
1.081724403
1.081423874
1.081122632
1.080820389
1.080516925
1.080212970
1.079908064
1.079601911
1.079295028
1.078987416
1.078678333
1.078368771
1.078058234
1.077746723
1.077433986
1.077120752
1.076806571
1.076491391
1.076175009
1.075858163
1.075540321
1.075221507
1.074901747
1.074580732
1.074259029
1.073936589
1.073613178
1.073288798
1.072963186
1.072637128
1.072309839
1.071981844
1.071653146
1.071323215
1.070992556
1.070660689
1.070327854
1.069994320
1.069659819
1.069324596
1.068988406
1.068651279
1.068313160
1.067974348
1.067634326
1.067293587
1.066951884
1.066609217
1.066265864
1.065921298
1.065575992
1.065229752
1.064882549
1.064534666
1.064185540
1.063835734
1.063484940
1.063133213
1.062780812
1.062427709
1.062073361
1.061718082
1.061361816
1.061004619
1.060646724
1.060287872
1.059928091
1.059567616
1.059206185
1.058843503
1.058480159
1.058115858
1.057750601
1.057384983
1.057018084
1.056650260
1.056281481
1.055912318
1.055541631
1.055170262
1.054797667
1.054424997
1.054050799
1.053675617
1.053299819
1.052923345
1.052545613
1.052167238
1.051787913
1.051407638
1.051026412
1.050644548
1.050261423
1.049877660
1.049493263
1.049107604
1.048720997
1.048333725
1.047945538
1.047556689
1.047166608
1.046775868
1.046383894
1.045991261
1.045598004
1.045203190
1.044808366
1.044411953
1.044015242
1.043616938
1.043218667
1.042818801
1.042418318
1.042016893
1.041614854
1.041211214
1.040807589
1.040402395
1.039996923
1.039590477
1.039182458
1.038774466
1.038364900
1.037955030
1.037544222
1.037131835
1.036719488
1.036305526
1.035891304
1.035476146
1.035059402
1.034642677
1.034224708
1.033805802
1.033386304
1.032965871
1.032544157
1.032121853
1.031698926
1.031275101
1.030849645
1.030424266
1.029997604
1.029570395
1.029141515
1.028712758
1.028282752
1.027851778
1.027420228
1.026987035
1.026553979
1.026119636
1.025684362
1.025248516
1.024811742
1.024373318
1.023935044
1.023495446
1.023055317
1.022614260
1.022172240
1.021729328
1.021285452
1.020841051
1.020394954
1.019948699
1.019501851
1.019053709
1.018605010
1.018155053
1.017704505
1.017253405
1.016801008
1.016348023
1.015893815
1.015438983
1.014983265
1.014527001
1.014069438
1.013611293
1.013152263
1.012692312
1.012232164
1.011770333
1.011308001
1.010844711
1.010380538
1.009915408
1.009449742
1.008982810
1.008515307
1.008047621
1.007578321
1.007108413
1.006637276
1.006165572
1.005692911
1.005220157
1.004745703
1.004270726
1.003794793
1.003317984
1.002840616
1.002362373
1.001882779
1.001402707
1.000922080
1.000440180
0.999957727
0.999474763
0.998990485
0.998504891
0.998019191
0.997532579
0.997045056
0.996556621
0.996067682
0.995577426
0.995087075
0.994594998
0.994102378
0.993609300
0.993114902
0.992619553
0.992124162
0.991627408
0.991130161
0.990631633
0.990132987
0.989632644
0.989132185
0.988630403
0.988127715
0.987624539
0.987120457
0.986615891
0.986109578
0.985603626
0.985095924
0.984588165
0.984079462
0.983569047
0.983059006
0.982547167
0.982034895
0.981521720
0.981008030
0.980493438
0.979977558
0.979461595
0.978943868
0.978426149
0.977907486
0.977387489
0.976867462
0.976346537
0.975823840
0.975301118
0.974777936
0.974252979
0.973727958
0.973202085
0.972674432
0.972147206
0.971618599
0.971089582
0.970558737
0.970027929
0.969496628
0.968963985
0.968430045
0.967896061
0.967361182
0.966825455
0.966289239
0.965751229
0.965213228
0.964674335
0.964134549
0.963593871
0.963052711
0.962510250
0.961966896
0.961423107
0.960878428
0.960333271
0.959786811
0.959239875
0.958692095
0.958143380
0.957594238
0.957043792
0.956492873
0.955941067
0.955388420
0.954835304
0.954280369
0.953725479
0.953169703
0.952613510
0.952055962
0.951497998
0.950939103
0.950379369
0.949818751
0.949257248
0.948694812
0.948132015
0.947568333
0.947003721
0.946438273
0.945871894
0.945305111
0.944737972
0.944169425
0.943599996
0.943029685
0.942458975
0.941887432
0.941314477
0.940742045
0.940167813
0.939593187
0.939017195
0.938440810
0.937864035
0.937286333
0.936707312
0.936127903
0.935548059
0.934966896
0.934384806
0.933801887
0.933219030
0.932634804
0.932049751
0.931464268
0.930877414
0.930290182
0.929702573
0.929113592
0.928523286
0.927933507
0.927341952
0.926749925
0.926157579
0.925563856
0.924970219
0.924374752
0.923778411
0.923182211
0.922584582
0.921987098
0.921387778
0.920788555
0.920187492
0.919586018
0.918984698
0.918381536
0.917777966
0.917173527
0.916568735
0.915962559
0.915356030
0.914748634
0.914140889
0.913532278
0.912921761
0.912311885
0.911700154
0.911088599
0.910475134
0.909862319
0.909248118
0.908632579
0.908017173
0.907400956
0.906782769
0.906165299
0.905545964
0.904926240
0.904306183
0.903684734
0.903062953
0.902440310
0.901817338
0.901192439
0.900567745
0.899942191
0.899315241
0.898687966
0.898060314
0.897431857
0.896802002
0.896171773
0.895540738
0.894909332
0.894277068
0.893642917
0.893008937
0.892374153
0.891739003
0.891102997
0.890466135
0.889827377
0.889188802
0.888549864
0.887909632
0.887268983
0.886627536
0.885985233
0.885342628
0.884698618
0.884054251
0.883407977
0.882761958
0.882115586
0.881467861
0.880819784
0.880170354
0.879520573
0.878870500
0.878219072
0.877566737
0.876914111
0.876260636
0.875606366
0.874951189
0.874295727
0.873638851
0.872982766
0.872324758
0.871665901
0.871006195
0.870346209
0.869684750
0.869023069
0.868360540
0.867697679
0.867033456
0.866369475
0.865704133
0.865037887
0.864370795
0.863702915
0.863034709
0.862366235
0.861696339
0.861025600
0.860354073
0.859682747
0.859010056
0.858335998
0.857661562
0.856987507
0.856311444
0.855635123
0.854957375
0.854280483
0.853601638
0.852921892
0.852242540
0.851561700
0.850879490
0.850198151
0.849514792
0.848830651
0.848146797
0.847461511
0.846775387
0.846089078
0.845401277
0.844713829
0.844024949
0.843334633
0.842645214
0.841953821
0.841262792
0.840569726
0.839877025
0.839182828
0.838489061
0.837793253
0.837097757
0.836400279
0.835703116
0.835004573
0.834306350
0.833606079
0.832906190
0.832204922
0.831503369
0.830800374
0.830097157
0.829393108
0.828688840
0.827983742
0.827277199
0.826570440
0.825863466
0.825154430
0.824445735
0.823735655
0.823025363
0.822314800
0.821602231
0.820890011
0.820177026
0.819462529
0.818748511
0.818032981
0.817317248
0.816600125
0.815882739
0.815164527
0.814446116
0.813725624
0.813005562
0.812284675
0.811562964
0.810839796
0.810117067
0.809393450
0.808669074
0.807943874
0.807217216
0.806490305
0.805763271
0.805035351
0.804306673
0.803577109
0.802846787
0.802116219
0.801383613
0.800651402
0.799918371
0.799184519
0.798450490
0.797714998
0.796979330
0.796242843
0.795505536
0.794767411
0.794029114
0.793289999
0.792549418
0.791809252
0.791067684
0.790325298
0.789582682
0.788838661
0.788094476
0.787349410
0.786604182
0.785857549
0.785110690
0.784362426
0.783613936
0.782865290
0.782115831
0.781365558
0.780613811
0.779861976
0.779109262
0.778356331
0.777601990
0.776848164
0.776092862
0.775336749
0.774579756
0.773822018
0.773063468
0.772305375
0.771545871
0.770785557
0.770024364
0.769263704
0.768500958
0.767738007
0.766974314
0.766210419
0.765445716
0.764679529
0.763913885
0.763146757
0.762378144
0.761609468
0.760841206
0.760071528
0.759300362
0.758529750
0.757757652
0.756986044
0.756212333
0.755437817
0.754664479
0.753888351
0.753113407
0.752336355
0.751558429
0.750781074
0.750002297
0.749223337
0.748442884
0.747663009
0.746881019
0.746099541
0.745316569
0.744533488
0.743748912
0.742964924
0.742178744
0.741393156
0.740606070
0.739818812
0.739030823
0.738242036
0.737453079
0.736662692
0.735872138
0.735080153
0.734288705
0.733495826
0.732702079
0.731908238
0.731112965
0.730317531
0.729522006
0.728724341
0.727927224
0.727129312
0.726329894
0.725531101
0.724730803
0.723930350
0.723128461
0.722326490
0.721523726
0.720719452
0.719915742
0.719111312
0.718306017
0.717500002
0.716692474
0.715885520
0.715077126
0.714268589
0.713459260
0.712648489
0.711837577
0.711026596
0.710214826
0.709402266
0.708588916
0.707774122
0.706959191
0.706144126
0.705327688
0.704511045
0.703694416
0.702876268
0.702057333
0.701238267
0.700418488
0.699597848
0.698776494
0.697954353
0.697132087
0.696308372
0.695484534
0.694659910
0.693834573
0.693009116
0.692182135
0.691355108
0.690527297
0.689698702
0.688869396
0.688039900
0.687209026
0.686377964
0.685546192
0.684713638
0.683880301
0.683046180
0.682212699
0.681377762
0.680542044
0.679705469
0.678868188
0.678030877
0.677193462
0.676354516
0.675514864
0.674674357
0.673833069
0.672992512
0.672150498
0.671306871
0.670463221
0.669618793
0.668775105
0.667929880
0.667083117
0.666237097
0.665389540
0.664541968
0.663692855
0.662844418
0.661993752
0.661143074
0.660293076
0.659440847
0.658587765
0.657735520
0.656881656
0.656027787
0.655172451
0.654316262
0.653460843
0.652603956
0.651746992
0.650888482
0.650029198
0.649169916
0.648309861
0.647449812
0.646587436
0.645726622
0.644863481
0.644000346
0.643136364
0.642272469
0.641406241
0.640541511
0.639674524
0.638807550
0.637939729
0.637071923
0.636201856
0.635333299
0.634463267
0.633591600
0.632720741
0.631848326
0.630976012
0.630102852
0.629228134
0.628354232
0.627477979
0.626602545
0.625726345
0.624848585
0.623971571
0.623093872
0.622214611
0.621334586
0.620454513
0.619573757
0.618692236
0.617809872
0.616927624
0.616044534
0.615159959
0.614275343
0.613390768
0.612504627
0.611617804
0.610730943
0.609843322
0.608954938
0.608066602
0.607176697
0.606286031
0.605395413
0.604504036
0.603611898
0.602719813
0.601826970
0.600932472
0.600037296
0.599142175
0.598247030
0.597350392
0.596453813
0.595556396
0.594658220
0.593759370
0.592859680
0.591960053
0.591058931
0.590157792
0.589255897
0.588353328
0.587450745
0.586546583
0.585642490
0.584737643
0.583832041
0.582925684
0.582018573
0.581111453
0.580202833
0.579294289
0.578384992
0.577476521
0.576565719
0.575654080
0.574742604
0.573830294
0.572917315
0.572003500
0.571089018
0.570175374
0.569260143
0.568344245
0.567427513
0.566510030
0.565592637
0.564674495
0.563755603
0.562835120
0.561914730
0.560995278
0.560073390
0.559151599
0.558228214
0.557305688
0.556381653
0.555457718
0.554532952
0.553607524
0.552680499
0.551754344
0.550826676
0.549899029
0.548970637
0.548041585
0.547110848
0.546181075
0.545249787
0.544319296
0.543386519
0.542452912
0.541520276
0.540586038
0.539652777
0.538717053
0.537780585
0.536845011
0.535907143
0.534970084
0.534031508
0.533093831
0.532153770
0.531214699
0.530273155
0.529332516
0.528390356
0.527449105
0.526505377
0.525562734
0.524619267
0.523673318
0.522729243
0.521782774
0.520836350
0.519890062
0.518941288
0.517993524
0.517044147
0.516095785
0.515145810
0.514195098
0.513243648
0.512293132
0.511339329
0.510387430
0.509433827
0.508479577
0.507524590
0.506569663
0.505614885
0.504657693
0.503700650
0.502743671
0.501785959
0.500825826
0.499866646
0.498907621
0.497946975
0.496984794
0.496023750
0.495061796
0.494099110
0.493136586
0.492172437
0.491206661
0.490241943
0.489276404
0.488310225
0.487343315
0.486376482
0.485408112
0.484439910
0.483470889
0.482500328
0.481529847
0.480558728
0.479587692
0.478616018
0.477643525
0.476670305
0.475696357
0.474721771
0.473747274
0.472771143
0.471795191
0.470818514
0.469841109
0.468863888
0.467885031
0.466906358
0.465926961
0.464946747
0.463965898
0.462985239
0.462003764
0.461021657
0.460037909
0.459054262
0.458069982
0.457085804
0.456100077
0.455115373
0.454129028
0.453142052
0.452154261
0.451165747
0.450176603
0.449188491
0.448198735
0.447208258
0.446217059
0.445225139
0.444234351
0.443240990
0.442247835
0.441253960
0.440260202
0.439264888
0.438269785
0.437273870
0.436277329
0.435280070
0.434282933
0.433284237
0.432284728
0.431286373
0.430286458
0.429285733
0.428285227
0.427283161
0.426280284
0.425278569
0.424274352
0.423271206
0.422266403
0.421260885
0.420256536
0.419249586
0.418243715
0.417236279
0.416229075
0.415220210
0.414211578
0.413202138
0.412193027
0.411181306
0.410170675
0.409158476
0.408147371
0.407133746
0.406121218
0.405106168
0.404092217
0.403076695
0.402062277
0.401046193
0.400029398
0.399011892
0.397993771
0.396975802
0.395957986
0.394937735
0.393917637
0.392897695
0.391876179
0.390854915
0.389832943
0.388810264
0.387786779
0.386763648
0.385737878
0.384714201
0.383688948
