# corrn_curve_cubic
0.872464134
0.873756503
0.875046882
0.876331730
0.877614584
0.878891830
0.880165421
0.881435177
0.882701283
0.883963652
0.885220465
0.886475281
0.887724649
0.888972107
0.890214043
0.891452270
0.892686791
0.893917609
0.895143039
0.896366465
0.897584431
0.898800478
0.900009414
0.901216436
0.902419699
0.903619382
0.904815398
0.906006024
0.907194638
0.908377964
0.909557646
0.910733690
0.911906096
0.913074869
0.914238403
0.915399923
0.916556136
0.917708738
0.918859402
0.920004869
0.921146650
0.922283260
0.923417933
0.924548930
0.925674780
0.926797053
0.927915751
0.929032502
0.930142437
0.931250430
0.932354862
0.933454131
0.934551452
0.935643706
0.936732341
0.937817439
0.938899082
0.939977114
0.941051697
0.942122676
0.943187098
0.944251123
0.945310086
0.946365545
0.947418963
0.948465888
0.949510855
0.950550809
0.951588801
0.952621872
0.953651395
0.954677448
0.955700110
0.956719233
0.957734895
0.958745693
0.959754521
0.960758353
0.961758820
0.962755850
0.963750829
0.964739613
0.965726280
0.966709595
0.967689488
0.968664532
0.969634817
0.970604477
0.971569313
0.972530751
0.973488866
0.974442189
0.975393459
0.976340023
0.977283144
0.978223656
0.979160107
0.980092510
0.981022853
0.981947861
0.982870200
0.983788517
0.984704840
0.985616476
0.986524844
0.987430480
0.988331457
0.989229179
0.990122860
0.991013952
0.991902320
0.992786138
0.993666589
0.994543161
0.995417086
0.996287718
0.997154421
0.998017778
0.998877350
0.999733586
1.000586554
1.001437509
1.002283319
1.003126495
1.003965857
1.004801290
1.005634158
1.006463107
1.007288882
1.008111362
1.008930672
1.009746152
1.010559011
1.011368589
1.012174411
1.012976429
1.013775833
1.014571443
1.015363854
1.016152486
1.016938570
1.017720826
1.018498804
1.019274703
1.020046911
1.020815892
1.021581763
1.022344414
1.023103961
1.023859789
1.024612411
1.025361941
1.026108326
1.026851018
1.027590027
1.028325964
1.029059265
1.029789439
1.030515951
1.031239347
1.031958615
1.032675792
1.033389385
1.034099824
1.034807219
1.035510473
1.036211633
1.036909238
1.037603761
1.038295154
1.038982550
1.039667339
1.040349063
1.041026714
1.041702319
1.042374366
1.043043362
1.043708865
1.044371278
1.045031145
1.045687044
1.046340402
1.046990198
1.047636538
1.048280823
1.048920654
1.049558383
1.050193149
1.050823966
1.051452254
1.052077545
1.052698911
1.053318218
1.053933202
1.054546538
1.055155525
1.055762042
1.056365092
1.056966077
1.057562799
1.058157456
1.058748271
1.059336533
1.059921015
1.060503430
1.061082035
1.061658569
1.062230880
1.062801121
1.063367585
1.063931977
1.064492186
1.065049947
1.065605174
1.066156663
1.066705707
1.067251399
1.067793832
1.068334147
1.068870806
1.069404183
1.069935482
1.070463109
1.070987867
1.071510504
1.072029140
1.072545307
1.073058616
1.073568725
1.074075948
1.074579946
1.075081860
1.075580218
1.076075705
1.076568029
1.077058229
1.077544904
1.078028761
1.078509803
1.078988355
1.079463415
1.079935671
1.080405127
1.080871433
1.081335298
1.081796371
1.082254309
1.082709464
1.083161533
1.083610794
1.084057319
1.084501042
1.084942032
1.085379897
1.085815662
1.086248047
1.086677357
1.087104246
1.087528037
1.087949122
1.088367156
1.088782774
1.089195350
1.089605234
1.090012365
1.090416779
1.090818173
1.091217160
1.091613167
1.092006144
1.092396748
1.092784332
1.093169253
1.093551456
1.093931002
1.094307294
1.094681196
1.095052423
1.095420979
1.095786589
1.096149536
1.096510096
1.096867724
1.097222160
1.097574219
1.097923660
1.098270431
1.098614562
1.098956082
1.099294196
1.099630429
1.099963553
1.100294282
1.100622417
1.100947193
1.101269856
1.101589886
1.101907334
1.102221701
1.102533712
1.102843129
1.103149513
1.103453522
1.103755178
1.104053592
1.104349864
1.104643361
1.104934046
1.105222411
1.105508190
1.105791216
1.106071688
1.106349588
1.106624750
1.106897578
1.107167451
1.107434994
1.107700204
1.107962280
1.108222229
1.108479280
1.108733989
1.108985987
1.109235665
1.109482660
1.109726945
1.109968932
1.110208218
1.110445207
1.110679344
1.110911153
1.111140319
1.111366830
1.111591210
1.111812772
1.112032031
1.112248656
1.112462816
1.112674353
1.112883450
1.113090395
1.113294414
1.113496298
1.113695444
1.113892001
1.114086555
1.114278244
1.114467505
1.114654612
1.114838881
1.115020873
1.115200571
1.115377594
1.115552089
1.115724549
1.115894222
1.116061511
1.116226392
1.116389006
1.116549104
1.116706706
1.116861915
1.117014980
1.117165328
1.117313419
1.117459017
1.117602261
1.117743359
1.117881761
1.118017924
1.118151630
1.118282988
1.118411901
1.118538668
1.118662995
1.118784890
1.118904462
1.119021605
1.119136513
1.119249018
1.119359196
1.119467066
1.119572533
1.119675858
1.119776709
1.119875264
1.119971520
1.120065470
1.120157062
1.120246365
1.120333380
1.120418112
1.120500499
1.120580610
1.120658447
1.120734020
1.120807318
1.120878297
1.120946968
1.121013380
1.121077595
1.121139552
1.121199218
1.121256636
1.121311817
1.121364758
1.121415424
1.121463856
1.121510028
1.121554011
1.121595738
1.121635279
1.121672572
1.121707654
1.121740478
1.121771122
1.121799585
1.121825828
1.121849873
1.121871692
1.121891339
1.121908814
1.121924090
1.121937167
1.121948087
1.121956824
1.121963392
1.121967788
1.121970022
1.121970096
1.121968013
1.121963775
1.121957384
1.121948859
1.121938182
1.121925353
1.121910420
1.121893326
1.121874099
1.121852773
1.121829307
1.121803756
1.121776045
1.121746218
1.121714323
1.121680292
1.121644211
1.121605969
1.121565688
1.121523278
1.121478808
1.121432211
1.121383601
1.121332864
1.121280091
1.121225197
1.121168311
1.121109267
1.121048242
1.120985107
1.120919955
1.120852694
1.120783478
1.120712267
1.120638835
1.120563530
1.120486061
1.120406673
1.120325313
1.120241723
1.120156299
1.120068711
1.119979227
1.119887802
1.119794213
1.119698672
1.119601203
1.119501638
1.119400152
1.119296654
1.119191239
1.119083750
1.118974344
1.118862946
1.118749469
1.118634186
1.118516922
1.118397679
1.118276460
1.118153169
1.118028102
1.117901070
1.117772166
1.117641210
1.117508189
1.117373413
1.117236695
1.117098019
1.116957507
1.116814952
1.116670444
1.116524113
1.116375859
1.116225782
1.116073657
1.115919728
1.115763877
1.115606232
1.115446546
1.115285062
1.115121681
1.114956393
1.114789320
1.114620092
1.114449234
1.114276467
1.114101822
1.113925273
1.113746993
1.113566959
1.113384904
1.113200971
1.113015310
1.112827780
1.112638246
1.112447118
1.112253991
1.112059004
1.111862315
1.111663773
1.111463380
1.111261139
1.111057360
1.110851596
1.110643977
1.110434537
1.110223416
1.110010313
1.109795535
1.109579105
1.109360699
1.109140632
1.108918574
1.108694879
1.108469734
1.108242424
1.108013310
1.107782577
1.107550213
1.107315888
1.107079958
1.106842050
1.106602718
1.106361431
1.106118364
1.105873889
1.105627249
1.105379053
1.105129268
1.104877517
1.104624225
1.104369336
1.104112324
1.103853739
1.103593819
1.103331734
1.103068323
1.102802960
1.102535834
1.102267206
1.101996845
1.101724949
1.101451129
1.101175804
1.100898512
1.100619744
1.100339461
1.100057037
1.099773556
1.099487914
1.099201023
1.098911992
1.098621910
1.098329713
1.098036032
1.097740872
1.097443812
1.097145304
1.096844874
1.096543246
1.096239456
1.095934453
1.095628027
1.095319464
1.095009482
1.094697812
1.094384757
1.094070021
1.093753376
1.093435588
1.093116179
1.092794840
1.092472116
1.092148013
1.091821750
1.091494375
1.091165370
1.090834735
1.090502207
1.090168562
1.089833325
1.089496443
1.089157701
1.088817892
1.088476447
1.088133396
1.087788769
1.087442233
1.087094405
1.086745233
1.086394469
1.086042115
1.085687888
1.085332646
1.084975535
1.084617133
1.084257445
1.083895893
1.083533033
1.083168341
1.082802082
1.082434554
1.082065465
1.081695088
1.081323157
1.080949705
1.080574673
1.080198398
1.079820306
1.079440947
1.079060050
1.078677618
1.078293962
1.077908497
1.077521753
1.077133515
1.076743755
1.076352792
1.075959995
1.075566002
1.075170465
1.074773451
1.074375253
1.073975845
1.073574614
1.073171917
1.072767692
1.072362006
1.071955126
1.071546759
1.071136941
1.070725940
1.070313462
1.069899172
1.069483743
1.069066843
1.068648473
1.068229319
1.067808327
1.067385910
1.066962034
1.066537359
1.066110576
1.065682655
1.065252971
1.064822857
1.064390636
1.063956939
1.063522193
1.063086332
1.062648685
1.062209966
1.061769822
1.061328254
1.060885265
1.060441219
1.059995395
1.059548521
1.059100603
1.058650912
1.058199815
1.057747646
1.057294115
1.056839521
1.056383198
1.055925819
1.055466714
1.055006559
1.054545396
1.054082135
1.053618591
1.053152913
1.052686622
1.052218197
1.051749551
1.051278773
1.050807016
1.050333897
1.049859809
1.049383588
1.048907142
1.048428604
1.047949501
1.047469016
1.046986439
1.046503665
1.046018803
1.045533360
1.045046585
1.044557722
1.044068691
1.043577533
1.043085857
1.042592863
1.042097782
1.041602521
1.041105584
1.040607337
1.040108192
1.039607744
1.039105582
1.038602532
1.038098558
1.037593332
1.037085982
1.036578550
1.036069415
1.035559457
1.035047335
1.034535195
1.034021401
1.033506290
1.032990332
1.032472254
1.031954187
1.031434430
1.030913411
1.030391563
1.029868459
1.029343239
1.028818061
1.028291159
1.027763489
1.027234575
1.026704377
1.026172983
1.025640309
1.025106884
1.024571303
1.024035417
1.023498703
1.022960323
1.022421166
1.021880388
1.021338795
1.020796436
1.020252418
1.019707595
1.019161204
1.018613970
1.018065579
1.017516442
1.016965654
1.016414081
1.015861362
1.015307453
1.014753229
1.014196903
1.013639901
1.013081673
1.012522313
1.011961733
1.011400443
1.010837565
1.010273938
1.009710034
1.009144126
1.008577434
1.008009207
1.007440248
1.006870089
1.006299772
1.005727362
1.005154279
1.004580006
1.004004640
1.003428564
1.002851402
1.002272578
1.001693150
1.001113027
1.000531344
0.999948972
0.999365963
0.998781351
0.998195135
0.997608777
0.997021308
0.996432730
0.995843045
0.995252745
0.994660853
0.994068845
0.993474753
0.992880010
0.992284719
0.991687842
0.991089826
0.990491769
0.989892082
0.989291813
0.988690016
0.988088094
0.987484146
0.986880081
0.986274444
0.985667740
0.985060476
0.984452150
0.983843272
0.983232320
0.982621841
0.982009289
0.981396710
0.980783032
0.980167334
0.979552134
0.978934813
0.978317020
0.977698190
0.977078791
0.976458362
0.975836437
0.975214472
0.974590441
0.973966482
0.973341452
0.972714881
0.972088342
0.971460792
0.970831179
0.970201610
0.969571564
0.968939457
0.968307354
0.967674306
0.967039199
0.966404692
0.965768608
0.965132120
0.964493524
0.963855064
0.963216105
0.962575629
0.961933691
0.961291797
0.960648931
0.960005148
0.959360883
0.958714568
0.958068372
0.957421214
0.956773097
0.956124022
0.955474482
0.954823498
0.954171563
0.953519225
0.952865942
0.952212209
0.951557039
0.950901425
0.950244930
0.949587444
0.948929578
0.948270284
0.947610561
0.946949912
0.946288395
0.945626458
0.944962486
0.944298713
0.943634025
0.942968986
0.942302476
0.941635619
0.940967802
0.940299137
0.939629571
0.938959105
0.938287686
0.937615994
0.936943410
0.936269880
0.935595518
0.934920212
0.934244593
0.933568722
0.932891343
0.932213088
0.931533957
0.930854527
0.930174284
0.929492541
0.928811602
0.928128704
0.927445523
0.926760903
0.926076005
0.925390832
0.924704750
0.924017293
0.923329570
0.922641526
0.921952114
0.921261801
0.920570706
0.919879886
0.919187646
0.918494632
0.917801315
0.917106582
0.916411611
0.915716406
0.915019789
0.914321819
0.913624688
0.912925676
0.912226324
0.911526814
0.910825902
0.910125313
0.909422789
0.908719460
0.908016526
0.907312135
0.906608147
0.905902226
0.905196653
0.904489150
0.903781399
0.903074066
0.902364807
0.901655309
0.900945031
0.900234582
0.899522753
0.898810757
0.898097991
0.897385064
0.896671372
0.895955698
0.895241029
0.894524442
0.893808318
0.893090216
0.892373134
0.891654690
0.890934945
0.890215619
0.889495610
0.888773567
0.888052629
0.887329782
0.886606754
0.885883608
0.885159113
0.884434506
0.883709171
0.882983730
0.882256325
0.881529439
0.880801835
0.880072890
0.879343852
0.878614663
0.877884825
0.877153653
0.876422337
0.875690379
0.874958281
0.874225484
0.873490795
0.872756601
0.872021777
0.871286826
0.870551186
0.869814859
0.869076644
0.868338945
0.867601134
0.866862136
0.866122967
0.865383185
0.864642730
0.863902239
0.863160442
0.862418551
0.861674783
0.860931625
0.860188381
0.859443902
0.858699342
0.857953549
0.857207680
0.856461801
0.855714695
0.854966878
0.854219057
0.853470594
0.852721554
0.851971810
0.851222074
0.850471058
0.849721282
0.848969649
0.848217386
0.847464496
0.846711628
0.845957425
0.845203314
0.844448584
0.843693822
0.842937860
0.842182523
0.841425989
0.840668781
0.839910966
0.839152611
0.838394241
0.837635926
0.836876357
0.836116192
0.835355496
0.834595390
0.833834103
0.833071634
0.832309105
0.831547374
0.830783743
0.830020190
0.829255397
0.828491944
0.827726661
0.826960737
0.826195634
0.825429233
0.824661668
0.823895462
0.823127366
0.822358775
0.821590888
0.820821778
0.820052114
0.819282629
0.818511860
0.817741876
0.816970677
0.816198264
0.815427247
0.814654418
0.813882388
0.813108481
0.812335380
0.811561006
0.810787512
0.810012144
0.809237527
0.808461104
0.807685438
0.806908642
0.806132608
0.805354707
0.804577640
0.803799451
0.803021358
0.802242078
0.801462967
0.800683349
0.799903904
0.799123958
0.798342832
0.797561886
0.796781123
0.795998506
0.795216688
0.794433766
0.793651036
0.792868433
0.792084048
0.791300477
0.790516493
0.789731277
0.788947020
0.788161535
0.787376260
0.786589898
0.785803682
0.785016998
0.784230535
0.783442233
0.782654843
0.781866993
0.781078685
0.780289231
0.779500699
0.778711646
0.777922211
0.777132328
0.776341306
0.775550460
0.774759931
0.773968891
0.773177481
0.772385564
0.771593280
0.770801186
0.770007342
0.769214385
0.768421000
0.767627187
0.766833646
0.766038986
0.765244600
0.764449796
0.763654574
0.762858937
0.762063583
0.761267818
0.760470945
0.759674991
0.758878001
0.758080608
0.757283441
0.756485244
0.755687347
0.754888984
0.754090926
0.753291844
0.752493002
0.751693139
0.750893519
0.750094216
0.749294530
0.748494461
0.747693309
0.746892551
0.746091347
0.745290402
0.744488449
0.743687535
0.742885547
0.742083192
0.741280399
0.740477313
0.739673865
0.738871399
0.738067939
0.737264122
0.736459879
0.735656700
0.734851823
0.734047235
0.733242370
0.732437798
0.731632881
0.730826913
0.730022025
0.729216087
0.728409102
0.727602563
0.726796972
0.725990410
0.725182805
0.724376297
0.723568751
0.722762235
0.721954041
0.721145527
0.720338763
0.719529612
0.718722217
0.717913151
0.717103701
0.716295372
0.715486091
0.714677147
0.713867182
0.713058348
0.712247850
0.711438416
0.710627966
0.709817938
0.709006899
0.708197003
0.707385379
0.706574904
0.705763423
0.704952304
0.704140974
0.703329361
0.702518116
0.701705946
0.700894147
0.700081424
0.699269798
0.698457252
0.697644364
0.696831930
0.696018581
0.695205616
0.694393112
0.693578974
0.692765949
0.691952668
0.691138407
0.690325340
0.689511297
0.688697655
0.687883113
0.687069047
0.686254737
0.685439459
0.684625315
0.683811005
0.682996383
0.682181598
0.681365852
0.680551252
0.679735767
0.678920706
0.678105417
0.677289248
0.676473507
0.675658272
0.674842815
0.674027139
0.673211245
0.672394480
0.671578156
0.670762274
0.669945599
0.669129297
0.668313590
0.667496948
0.666680101
0.665863709
0.665047189
0.664230397
0.663413480
0.662596368
0.661779719
0.660962220
0.660145188
0.659327968
0.658510632
0.657693770
0.656875992
0.656058763
0.655241354
0.654423766
0.653606074
0.652788792
0.651970750
0.651153122
0.650335396
0.649517502
0.648699440
0.647881213
0.647064215
0.646246395
0.645428414
0.644610201
0.643791904
0.642974186
0.642156974
0.641338876
0.640520701
0.639702303
0.638883758
0.638066536
0.637248510
0.636429532
0.635611149
0.634792627
0.633975437
0.633157377
0.632338447
0.631520856
0.630702398
0.629884547
0.629065832
0.628248390
0.627429424
0.626611073
0.625793999
0.624975407
0.624156623
0.623339270
0.622520992
0.621703338
0.620884909
0.620066297
0.619249051
0.618431036
0.617613579
0.616795281
0.615976882
0.615159121
0.614341261
0.613524042
0.612705252
0.611888583
0.611070346
0.610252756
0.609435004
0.608617977
0.607799388
0.606982856
0.606164839
0.605347479
0.604529967
0.603713116
0.602894785
0.602078522
0.601261522
0.600443638
0.599627162
0.598809879
0.597993343
0.597176668
0.596359191
0.595543131
0.594725531
0.593909352
0.593093117
0.592276086
0.591460407
0.590644750
0.589828303
0.589011806
0.588195928
0.587380078
0.586564184
0.585748173
0.584932935
0.584117583
0.583301528
0.582486101
0.581671380
0.580855886
0.580040433
0.579225617
0.578410772
0.577595900
0.576781743
0.575966821
0.575151877
0.574337652
0.573523408
0.572709146
0.571895608
0.571082056
0.570267676
0.569453358
0.568639770
0.567826841
0.567013238
0.566200370
0.565387424
0.564574476
0.563761601
0.562948652
0.562136447
0.561323578
0.560511382
0.559699192
0.558887084
0.558075653
0.557263492
0.556452085
0.555640693
0.554829316
0.554017957
0.553206617
0.552395963
0.551584666
0.550774132
0.549963623
0.549154548
0.548344094
0.547533595
0.546723942
0.545914248
0.545104661
0.544295037
0.543485523
0.542677454
0.541868685
0.541060032
0.540251348
0.539442709
0.538634855
0.537827050
0.537019293
0.536210847
0.535403193
0.534597073
0.533789527
0.532982778
0.532175348
0.531369382
0.530562812
0.529757043
0.528951265
0.528145626
0.527339315
0.526534477
0.525729043
0.524924346
0.524119722
0.523315246
0.522510033
0.521706375
0.520902131
0.520099297
0.519295215
0.518491142
0.517688631
0.516885468
0.516083868
0.515280881
0.514477985
0.513676583
0.512873947
0.512072733
0.511270952
0.510470670
0.509669086
0.508869077
0.508067696
0.507267820
0.506467385
0.505668457
0.504868163
0.504069525
0.503270925
0.502470964
0.501673327
0.500874405
0.500076263
0.499278975
0.498480334
0.497683286
0.496885625
0.496089560
0.495292883
0.494496334
0.493699913
0.492905018
0.492108122
0.491313564
0.490518331
0.489723308
0.488928420
0.488134333
0.487341119
0.486546650
0.485753059
0.484960272
0.484167630
0.483373740
0.482581393
0.481789928
0.480997882
0.480205327
0.479414466
0.478623614
0.477832918
0.477043112
0.476252733
0.475461783
0.474672459
0.473883226
0.473094231
0.472305403
0.471517400
0.470728908
0.469941319
0.469153828
0.468365852
0.467578710
0.466791816
0.466005758
0.465219952
0.464434252
0.463648735
0.462863400
0.462078324
0.461294089
0.460509313
0.459725454
0.458941786
0.458158309
0.457375753
0.456592664
0.455810498
0.455028529
0.454246685
0.453465114
0.452684472
0.451903959
0.451123722
0.450342964
0.449563067
0.448783450
0.448004697
0.447225500
0.446447895
0.445669777
0.444891947
0.444114260
0.443336791
0.442559613
0.441784033
0.441007949
0.440232088
0.439456452
0.438681042
0.437907305
0.437132350
0.436358349
0.435584578
0.434811690
0.434038385
0.433266038
0.432493856
0.431721983
0.430950349
0.430179605
0.429408454
0.428637474
0.427868180
0.427098483
0.426328962
0.425560409
0.424791457
0.424022686
0.423255606
0.422487413
0.421720841
0.420953807
0.420187031
0.419421951
0.418655695
0.417891065
0.417126051
0.416362020
0.415597537
0.414834039
0.414070737
0.413308492
0.412545087
0.411783314
0.411021171
0.410260661
0.409499070
0.408739114
0.407978080
0.407218683
0.406458925
0.405700806
0.404942258
0.404183995
0.403426019
0.402668402
0.401911716
0.401155962
0.400399218
0.399643408
0.398888532
0.398133313
0.397379102
0.396625189
0.395871575
0.395118192
0.394365892
0.393612477
0.392861424
0.392110038
