corrn_curve_cubic
1.15351884
1.15313353
1.15274883
1.15236472
1.15198123
1.15159833
1.15121603
1.15083433
1.15045324
1.15007273
1.14969283
1.14931352
1.14893480
1.14855668
1.14817914
1.14780220
1.14742585
1.14705009
1.14667491
1.14630032
1.14592631
1.14555289
1.14518005
1.14480780
1.14443612
1.14406502
1.14369451
1.14332457
1.14295520
1.14258641
1.14221820
1.14185056
1.14148349
1.14111699
1.14075106
1.14038571
1.14002091
1.13965669
1.13929303
1.13892994
1.13856740
1.13820544
1.13784403
1.13748318
1.13712289
1.13676316
1.13640399
1.13604538
1.13568731
1.13532981
1.13497285
1.13461645
1.13426060
1.13390529
1.13355054
1.13319633
1.13284267
1.13248956
1.13213699
1.13178496
1.13143348
1.13108253
1.13073213
1.13038227
1.13003294
1.12968415
1.12933590
1.12898818
1.12864100
1.12829434
1.12794823
1.12760264
1.12725758
1.12691305
1.12656905
1.12622557
1.12588262
1.12554020
1.12519829
1.12485692
1.12451606
1.12417572
1.12383590
1.12349660
1.12315782
1.12281956
1.12248181
1.12214457
1.12180785
1.12147164
1.12113594
1.12080075
1.12046608
1.12013191
1.11979824
1.11946508
1.11913243
1.11880029
1.11846864
1.11813750
1.11780686
1.11747672
1.11714708
1.11681793
1.11648929
1.11616114
1.11583348
1.11550632
1.11517965
1.11485348
1.11452779
1.11420260
1.11387790
1.11355368
1.11322995
1.11290671
1.11258395
1.11226168
1.11193989
1.11161858
1.11129775
1.11097740
1.11065754
1.11033815
1.11001924
1.10970080
1.10938284
1.10906536
1.10874835
1.10843181
1.10811574
1.10780014
1.10748501
1.10717035
1.10685616
1.10654244
1.10622918
1.10591638
1.10560405
1.10529219
1.10498078
1.10466983
1.10435935
1.10404932
1.10373975
1.10343064
1.10312199
1.10281378
1.10250604
1.10219874
1.10189190
1.10158551
1.10127957
1.10097408
1.10066904
1.10036445
1.10006030
1.09975660
1.09945334
1.09915052
1.09884815
1.09854622
1.09824473
1.09794368
1.09764307
1.09734290
1.09704317
1.09674387
1.09644500
1.09614657
1.09584858
1.09555101
1.09525388
1.09495718
1.09466090
1.09436506
1.09406964
1.09377465
1.09348009
1.09318595
1.09289224
1.09259895
1.09230608
1.09201363
1.09172160
1.09142999
1.09113880
1.09084803
1.09055767
1.09026773
1.08997821
1.08968909
1.08940039
1.08911211
1.08882423
1.08853677
1.08824971
1.08796306
1.08767682
1.08739099
1.08710556
1.08682054
1.08653592
1.08625170
1.08596789
1.08568448
1.08540146
1.08511885
1.08483664
1.08455482
1.08427340
1.08399237
1.08371174
1.08343151
1.08315166
1.08287221
1.08259315
1.08231448
1.08203621
1.08175831
1.08148081
1.08120370
1.08092697
1.08065062
1.08037466
1.08009908
1.07982389
1.07954907
1.07927464
1.07900059
1.07872691
1.07845362
1.07818070
1.07790816
1.07763599
1.07736420
1.07709278
1.07682173
1.07655106
1.07628076
1.07601082
1.07574126
1.07547206
1.07520324
1.07493478
1.07466668
1.07439895
1.07413159
1.07386458
1.07359794
1.07333167
1.07306575
1.07280019
1.07253499
1.07227015
1.07200567
1.07174154
1.07147777
1.07121435
1.07095129
1.07068858
1.07042623
1.07016422
1.06990256
1.06964126
1.06938030
1.06911969
1.06885943
1.06859951
1.06833994
1.06808072
1.06782184
1.06756330
1.06730510
1.06704724
1.06678973
1.06653255
1.06627571
1.06601922
1.06576305
1.06550723
1.06525174
1.06499658
1.06474176
1.06448727
1.06423311
1.06397928
1.06372579
1.06347262
1.06321978
1.06296728
1.06271509
1.06246324
1.06221171
1.06196050
1.06170962
1.06145906
1.06120882
1.06095891
1.06070931
1.06046004
1.06021108
1.05996244
1.05971412
1.05946612
1.05921843
1.05897106
1.05872400
1.05847725
1.05823082
1.05798469
1.05773888
1.05749338
1.05724819
1.05700330
1.05675873
1.05651446
1.05627050
1.05602684
1.05578349
1.05554044
1.05529769
1.05505524
1.05481310
1.05457126
1.05432971
1.05408847
1.05384752
1.05360687
1.05336652
1.05312646
1.05288670
1.05264724
1.05240806
1.05216918
1.05193059
1.05169229
1.05145428
1.05121656
1.05097913
1.05074199
1.05050513
1.05026856
1.05003228
1.04979628
1.04956057
1.04932513
1.04908998
1.04885512
1.04862053
1.04838622
1.04815220
1.04791845
1.04768498
1.04745178
1.04721887
1.04698622
1.04675386
1.04652176
1.04628994
1.04605840
1.04582712
1.04559612
1.04536538
1.04513492
1.04490472
1.04467479
1.04444513
1.04421573
1.04398660
1.04375774
1.04352914
1.04330080
1.04307273
1.04284491
1.04261736
1.04239007
1.04216304
1.04193627
1.04170975
1.04148349
1.04125749
1.04103175
1.04080626
1.04058102
1.04035604
1.04013131
1.03990684
1.03968261
1.03945864
1.03923491
1.03901144
1.03878821
1.03856523
1.03834250
1.03812002
1.03789778
1.03767578
1.03745403
1.03723252
1.03701126
1.03679023
1.03656945
1.03634891
1.03612861
1.03590854
1.03568872
1.03546913
1.03524978
1.03503066
1.03481179
1.03459314
1.03437473
1.03415655
1.03393861
1.03372089
1.03350341
1.03328616
1.03306914
1.03285234
1.03263578
1.03241944
1.03220333
1.03198744
1.03177178
1.03155635
1.03134114
1.03112615
1.03091138
1.03069684
1.03048252
1.03026841
1.03005453
1.02984087
1.02962742
1.02941419
1.02920118
1.02898839
1.02877581
1.02856344
1.02835129
1.02813935
1.02792763
1.02771611
1.02750481
1.02729372
1.02708284
1.02687217
1.02666170
1.02645145
1.02624140
1.02603155
1.02582192
1.02561249
1.02540326
1.02519423
1.02498541
1.02477679
1.02456838
1.02436016
1.02415214
1.02394433
1.02373671
1.02352929
1.02332207
1.02311504
1.02290821
1.02270158
1.02249514
1.02228890
1.02208284
1.02187699
1.02167132
1.02146584
1.02126056
1.02105547
1.02085056
1.02064584
1.02044132
1.02023697
1.02003282
1.01982885
1.01962507
1.01942147
1.01921806
1.01901482
1.01881178
1.01860891
1.01840623
1.01820372
1.01800140
1.01779925
1.01759729
1.01739550
1.01719389
1.01699245
1.01679120
1.01659011
1.01638921
1.01618847
1.01598791
1.01578753
1.01558731
1.01538727
1.01518740
1.01498769
1.01478816
1.01458880
1.01438960
1.01419057
1.01399171
1.01379302
1.01359449
1.01339612
1.01319792
1.01299989
1.01280202
1.01260431
1.01240676
1.01220937
1.01201214
1.01181508
1.01161817
1.01142142
1.01122483
1.01102839
1.01083212
1.01063600
1.01044003
1.01024422
1.01004856
1.00985306
1.00965771
1.00946251
1.00926747
1.00907257
1.00887783
1.00868323
1.00848879
1.00829449
1.00810034
1.00790634
1.00771248
1.00751877
1.00732521
1.00713179
1.00693852
1.00674538
1.00655240
1.00635955
1.00616684
1.00597428
1.00578186
1.00558957
1.00539743
1.00520542
1.00501356
1.00482183
1.00463023
1.00443878
1.00424745
1.00405627
1.00386522
1.00367430
1.00348351
1.00329286
1.00310234
1.00291195
1.00272169
1.00253156
1.00234156
1.00215169
1.00196194
1.00177233
1.00158284
1.00139348
1.00120424
1.00101513
1.00082615
1.00063728
1.00044855
1.00025993
1.00007144
0.99988307
0.99969481
0.99950668
0.99931867
0.99913078
0.99894301
0.99875536
0.99856782
0.99838040
0.99819310
0.99800591
0.99781884
0.99763188
0.99744503
0.99725830
0.99707168
0.99688518
0.99669879
0.99651250
0.99632633
0.99614027
0.99595431
0.99576847
0.99558273
0.99539710
0.99521158
0.99502616
0.99484085
0.99465565
0.99447055
0.99428555
0.99410066
0.99391587
0.99373119
0.99354660
0.99336212
0.99317773
0.99299345
0.99280927
0.99262518
0.99244119
0.99225730
0.99207351
0.99188982
0.99170622
0.99152272
0.99133931
0.99115599
0.99097277
0.99078965
0.99060661
0.99042367
0.99024082
0.99005806
0.98987539
0.98969281
0.98951032
0.98932792
0.98914561
0.98896338
0.98878125
0.98859920
0.98841723
0.98823535
0.98805356
0.98787184
0.98769022
0.98750867
0.98732721
0.98714583
0.98696454
0.98678332
0.98660218
0.98642113
0.98624015
0.98605925
0.98587844
0.98569769
0.98551703
0.98533644
0.98515593
0.98497549
0.98479513
0.98461485
0.98443463
0.98425449
0.98407443
0.98389443
0.98371451
0.98353466
0.98335488
0.98317517
0.98299553
0.98281596
0.98263646
0.98245702
0.98227765
0.98209835
0.98191912
0.98173995
0.98156085
0.98138181
0.98120284
0.98102393
0.98084508
0.98066630
0.98048757
0.98030891
0.98013031
0.97995178
0.97977330
0.97959488
0.97941652
0.97923822
0.97905998
0.97888179
0.97870366
0.97852559
0.97834757
0.97816961
0.97799170
0.97781385
0.97763605
0.97745831
0.97728062
0.97710298
0.97692539
0.97674785
0.97657037
0.97639293
0.97621554
0.97603821
0.97586092
0.97568368
0.97550649
0.97532934
0.97515224
0.97497519
0.97479818
0.97462122
0.97444430
0.97426743
0.97409060
0.97391381
0.97373707
0.97356037
0.97338371
0.97320709
0.97303051
0.97285397
0.97267747
0.97250101
0.97232459
0.97214820
0.97197186
0.97179555
0.97161928
0.97144304
0.97126684
0.97109067
0.97091454
0.97073844
0.97056238
0.97038635
0.97021035
0.97003438
0.96985845
0.96968255
0.96950667
0.96933083
0.96915502
0.96897923
0.96880348
0.96862775
0.96845205
0.96827638
0.96810074
0.96792512
0.96774952
0.96757395
0.96739841
0.96722289
0.96704740
0.96687192
0.96669647
0.96652105
0.96634564
0.96617026
0.96599489
0.96581955
0.96564423
0.96546893
0.96529364
0.96511838
0.96494313
0.96476790
0.96459269
0.96441749
0.96424231
0.96406714
0.96389199
0.96371686
0.96354174
0.96336663
0.96319154
0.96301646
0.96284139
0.96266633
0.96249129
0.96231625
0.96214123
0.96196622
0.96179121
0.96161622
0.96144123
0.96126625
0.96109128
0.96091632
0.96074136
0.96056641
0.96039147
0.96021653
0.96004159
0.95986666
0.95969174
0.95951682
0.95934190
0.95916698
0.95899207
0.95881715
0.95864224
0.95846733
0.95829242
0.95811751
0.95794260
0.95776769
0.95759277
0.95741786
0.95724294
0.95706802
0.95689309
0.95671816
0.95654323
0.95636829
0.95619335
0.95601840
0.95584345
0.95566849
0.95549352
0.95531855
0.95514357
0.95496857
0.95479358
0.95461857
0.95444355
0.95426852
0.95409348
0.95391843
0.95374337
0.95356830
0.95339321
0.95321812
0.95304301
0.95286788
0.95269274
0.95251759
0.95234242
0.95216724
0.95199204
0.95181683
0.95164160
0.95146635
0.95129108
0.95111580
0.95094049
0.95076517
0.95058983
0.95041447
0.95023909
0.95006369
0.94988827
0.94971283
0.94953736
0.94936187
0.94918636
0.94901083
0.94883528
0.94865969
0.94848409
0.94830846
0.94813281
0.94795712
0.94778142
0.94760568
0.94742992
0.94725414
0.94707832
0.94690248
0.94672661
0.94655070
0.94637477
0.94619881
0.94602282
0.94584680
0.94567075
0.94549466
0.94531855
0.94514240
0.94496622
0.94479000
0.94461375
0.94443747
0.94426115
0.94408480
0.94390841
0.94373199
0.94355553
0.94337903
0.94320250
0.94302593
0.94284932
0.94267268
0.94249599
0.94231927
0.94214250
0.94196570
0.94178886
0.94161197
0.94143505
0.94125808
0.94108107
0.94090402
0.94072693
0.94054979
0.94037261
0.94019539
0.94001812
0.93984081
0.93966345
0.93948604
0.93930860
0.93913110
0.93895356
0.93877597
0.93859833
0.93842064
0.93824291
0.93806513
0.93788730
0.93770942
0.93753149
0.93735350
0.93717547
0.93699739
0.93681925
0.93664107
0.93646283
0.93628454
0.93610619
0.93592780
0.93574934
0.93557084
0.93539228
0.93521366
0.93503499
0.93485626
0.93467748
0.93449864
0.93431975
0.93414079
0.93396178
0.93378271
0.93360358
0.93342439
0.93324515
0.93306584
0.93288648
0.93270705
0.93252756
0.93234801
0.93216840
0.93198873
0.93180899
0.93162920
0.93144934
0.93126941
0.93108942
0.93090937
0.93072926
0.93054907
0.93036883
0.93018851
0.93000813
0.92982769
0.92964717
0.92946659
0.92928595
0.92910523
0.92892445
0.92874359
0.92856267
0.92838168
0.92820062
0.92801949
0.92783828
0.92765701
0.92747567
0.92729425
0.92711276
0.92693120
0.92674957
0.92656786
0.92638608
0.92620422
0.92602229
0.92584029
0.92565821
0.92547605
0.92529382
0.92511152
0.92492913
0.92474667
0.92456414
0.92438152
0.92419883
0.92401606
0.92383321
0.92365028
0.92346727
0.92328418
0.92310101
0.92291776
0.92273443
0.92255102
0.92236753
0.92218395
0.92200030
0.92181656
0.92163273
0.92144883
0.92126484
0.92108076
0.92089660
0.92071236
0.92052803
0.92034362
0.92015912
0.91997453
0.91978986
0.91960510
0.91942025
0.91923532
0.91905029
0.91886518
0.91867998
0.91849469
0.91830932
0.91812385
0.91793829
0.91775264
0.91756690
0.91738107
0.91719515
0.91700914
0.91682303
0.91663683
0.91645054
0.91626415
0.91607768
0.91589110
0.91570444
0.91551768
0.91533082
0.91514387
0.91495682
0.91476968
0.91458244
0.91439511
0.91420767
0.91402014
0.91383252
0.91364479
0.91345697
0.91326904
0.91308102
0.91289290
0.91270468
0.91251636
0.91232794
0.91213941
0.91195079
0.91176207
0.91157324
0.91138431
0.91119528
0.91100615
0.91081691
0.91062757
0.91043813
0.91024858
0.91005893
0.90986917
0.90967931
0.90948935
0.90929927
0.90910910
0.90891881
0.90872842
0.90853792
0.90834731
0.90815660
0.90796578
0.90777485
0.90758381
0.90739266
0.90720141
0.90701004
0.90681856
0.90662698
0.90643528
0.90624347
0.90605155
0.90585952
0.90566738
0.90547512
0.90528275
0.90509027
0.90489768
0.90470497
0.90451215
0.90431922
0.90412617
0.90393300
0.90373972
0.90354633
0.90335282
0.90315919
0.90296545
0.90277159
0.90257761
0.90238352
0.90218930
0.90199497
0.90180053
0.90160596
0.90141128
0.90121647
0.90102155
0.90082650
0.90063134
0.90043605
0.90024065
0.90004512
0.89984947
0.89965370
0.89945781
0.89926180
0.89906566
0.89886940
0.89867302
0.89847651
0.89827988
0.89808313
0.89788625
0.89768925
0.89749212
0.89729487
0.89709749
0.89689998
0.89670235
0.89650459
0.89630670
0.89610869
0.89591055
0.89571228
0.89551389
0.89531536
0.89511671
0.89491793
0.89471901
0.89451997
0.89432080
0.89412150
0.89392207
0.89372250
0.89352281
0.89332298
0.89312303
0.89292294
0.89272272
0.89252236
0.89232187
0.89212125
0.89192050
0.89171961
0.89151859
0.89131743
0.89111614
0.89091471
0.89071315
0.89051146
0.89030962
0.89010765
0.88990555
0.88970331
0.88950093
0.88929841
0.88909576
0.88889296
0.88869003
0.88848696
0.88828376
0.88808041
0.88787692
0.88767330
0.88746953
0.88726562
0.88706158
0.88685739
0.88665306
0.88644859
0.88624398
0.88603922
0.88583433
0.88562929
0.88542411
0.88521878
0.88501332
0.88480770
0.88460195
0.88439605
0.88419000
0.88398382
0.88377748
0.88357100
0.88336438
0.88315761
0.88295069
0.88274362
0.88253641
0.88232906
0.88212155
0.88191390
0.88170610
0.88149815
0.88129005
0.88108180
0.88087341
0.88066487
0.88045617
0.88024733
0.88003833
0.87982919
0.87961990
0.87941045
0.87920085
0.87899110
0.87878120
0.87857115
0.87836095
0.87815059
0.87794008
0.87772942
0.87751860
0.87730763
0.87709650
0.87688523
0.87667379
0.87646220
0.87625046
0.87603856
0.87582651
0.87561430
0.87540194
0.87518941
0.87497673
0.87476390
0.87455091
0.87433776
0.87412445
0.87391098
0.87369736
0.87348357
0.87326963
0.87305553
0.87284127
0.87262685
0.87241227
0.87219753
0.87198263
0.87176757
0.87155235
0.87133697
0.87112143
0.87090572
0.87068985
0.87047382
0.87025763
0.87004128
0.86982476
0.86960808
0.86939123
0.86917422
0.86895705
0.86873971
0.86852221
0.86830455
0.86808671
0.86786872
0.86765056
0.86743223
0.86721373
0.86699507
0.86677625
0.86655725
0.86633809
0.86611876
0.86589927
0.86567960
0.86545977
0.86523977
0.86501960
0.86479926
0.86457875
0.86435808
0.86413723
0.86391621
0.86369503
0.86347367
0.86325214
0.86303044
0.86280857
0.86258653
0.86236432
0.86214194
0.86191938
0.86169665
0.86147375
0.86125067
0.86102742
0.86080400
0.86058041
0.86035664
0.86013270
0.85990858
0.85968429
0.85945982
0.85923518
0.85901036
0.85878536
0.85856019
0.85833485
0.85810933
0.85788363
0.85765775
0.85743170
0.85720547
0.85697906
0.85675248
0.85652572
0.85629877
0.85607165
0.85584435
0.85561688
0.85538922
0.85516138
0.85493337
0.85470517
0.85447679
0.85424823
0.85401950
0.85379058
0.85356148
0.85333220
0.85310273
0.85287309
0.85264326
0.85241325
0.85218306
0.85195268
0.85172212
0.85149138
0.85126046
0.85102935
0.85079805
0.85056658
0.85033491
0.85010307
0.84987103
0.84963882
0.84940642
0.84917383
0.84894105
0.84870809
0.84847495
0.84824161
0.84800809
0.84777438
0.84754049
0.84730641
0.84707214
0.84683768
0.84660303
0.84636820
0.84613318
0.84589796
0.84566256
0.84542697
0.84519119
0.84495522
0.84471906
0.84448271
0.84424617
0.84400944
0.84377251
0.84353540
0.84329809
0.84306060
0.84282291
0.84258503
0.84234695
0.84210869
0.84187023
0.84163158
0.84139273
0.84115369
0.84091446
0.84067503
0.84043541
0.84019560
0.83995559
0.83971539
0.83947499
0.83923439
0.83899360
0.83875262
0.83851144
0.83827006
0.83802848
0.83778671
0.83754475
0.83730258
0.83706022
0.83681766
0.83657491
0.83633195
0.83608880
0.83584545
0.83560190
0.83535815
0.83511420
0.83487006
0.83462571
0.83438116
0.83413642
0.83389147
0.83364633
0.83340098
0.83315544
0.83290969
0.83266374
0.83241759
0.83217124
0.83192468
0.83167793
0.83143097
0.83118381
0.83093645
0.83068888
0.83044111
0.83019314
0.82994496
0.82969658
0.82944800
0.82919921
0.82895022
0.82870103
0.82845162
0.82820202
0.82795221
0.82770219
0.82745197
0.82720154
0.82695091
0.82670007
0.82644902
0.82619777
0.82594631
0.82569464
0.82544276
0.82519068
0.82493839
0.82468590
0.82443319
0.82418028
0.82392715
0.82367382
0.82342028
0.82316653
0.82291257
0.82265841
0.82240403
0.82214944
0.82189464
0.82163963
0.82138442
0.82112899
0.82087335
0.82061749
0.82036143
0.82010516
0.81984867
0.81959197
0.81933506
0.81907794
0.81882060
0.81856305
0.81830529
0.81804732
0.81778913
0.81753073
0.81727211
0.81701328
0.81675424
0.81649498
0.81623551
0.81597582
0.81571592
0.81545580
0.81519547
0.81493492
0.81467416
0.81441318
0.81415198
0.81389057
0.81362894
0.81336709
0.81310503
0.81284275
0.81258025
0.81231754
0.81205460
0.81179145
0.81152808
0.81126450
0.81100069
0.81073667
0.81047242
0.81020796
0.80994328
0.80967838
0.80941326
0.80914792
0.80888236
0.80861657
0.80835057
0.80808435
0.80781791
0.80755124
0.80728436
0.80701725
0.80674992
0.80648237
0.80621460
0.80594661
0.80567839
0.80540995
0.80514129
0.80487240
0.80460329
0.80433396
0.80406441
0.80379463
0.80352463
0.80325440
0.80298395
0.80271327
0.80244237
0.80217125
0.80189990
0.80162833
0.80135653
0.80108450
0.80081225
0.80053977
0.80026707
0.79999414
0.79972098
0.79944760
0.79917399
0.79890015
0.79862609
0.79835179
0.79807727
0.79780253
0.79752755
0.79725235
0.79697692
0.79670126
0.79642537
0.79614925
0.79587290
0.79559633
0.79531952
0.79504249
0.79476522
0.79448773
0.79421000
0.79393205
0.79365386
0.79337544
0.79309680
0.79281792
0.79253881
0.79225947
0.79197989
0.79170009
