corrn_curve_quadratic
1.10159730
1.10143692
1.10127648
1.10111599
1.10095544
1.10079483
1.10063416
1.10047344
1.10031266
1.10015183
1.09999094
1.09982999
1.09966899
1.09950793
1.09934681
1.09918564
1.09902441
1.09886312
1.09870178
1.09854038
1.09837893
1.09821742
1.09805585
1.09789423
1.09773255
1.09757082
1.09740903
1.09724719
1.09708529
1.09692333
1.09676132
1.09659925
1.09643713
1.09627495
1.09611272
1.09595043
1.09578809
1.09562569
1.09546324
1.09530073
1.09513816
1.09497554
1.09481287
1.09465014
1.09448735
1.09432452
1.09416162
1.09399867
1.09383567
1.09367261
1.09350950
1.09334633
1.09318311
1.09301983
1.09285650
1.09269312
1.09252968
1.09236619
1.09220264
1.09203904
1.09187538
1.09171167
1.09154790
1.09138409
1.09122021
1.09105629
1.09089231
1.09072827
1.09056419
1.09040004
1.09023585
1.09007160
1.08990730
1.08974294
1.08957853
1.08941407
1.08924955
1.08908498
1.08892036
1.08875568
1.08859095
1.08842617
1.08826133
1.08809645
1.08793150
1.08776651
1.08760146
1.08743636
1.08727121
1.08710600
1.08694074
1.08677543
1.08661006
1.08644465
1.08627918
1.08611365
1.08594808
1.08578245
1.08561677
1.08545104
1.08528525
1.08511942
1.08495353
1.08478759
1.08462159
1.08445555
1.08428945
1.08412330
1.08395710
1.08379084
1.08362454
1.08345818
1.08329177
1.08312531
1.08295880
1.08279224
1.08262562
1.08245895
1.08229224
1.08212546
1.08195864
1.08179177
1.08162485
1.08145787
1.08129084
1.08112377
1.08095664
1.08078946
1.08062223
1.08045494
1.08028761
1.08012023
1.07995279
1.07978530
1.07961777
1.07945018
1.07928254
1.07911485
1.07894711
1.07877932
1.07861148
1.07844359
1.07827565
1.07810766
1.07793962
1.07777152
1.07760338
1.07743519
1.07726694
1.07709865
1.07693031
1.07676191
1.07659347
1.07642498
1.07625643
1.07608784
1.07591920
1.07575050
1.07558176
1.07541297
1.07524413
1.07507523
1.07490629
1.07473730
1.07456826
1.07439917
1.07423003
1.07406085
1.07389161
1.07372232
1.07355298
1.07338360
1.07321416
1.07304468
1.07287515
1.07270557
1.07253594
1.07236626
1.07219653
1.07202675
1.07185692
1.07168705
1.07151712
1.07134715
1.07117713
1.07100706
1.07083694
1.07066678
1.07049656
1.07032630
1.07015599
1.06998563
1.06981522
1.06964476
1.06947426
1.06930370
1.06913310
1.06896245
1.06879176
1.06862101
1.06845022
1.06827938
1.06810849
1.06793755
1.06776657
1.06759554
1.06742446
1.06725333
1.06708215
1.06691093
1.06673966
1.06656834
1.06639698
1.06622557
1.06605411
1.06588260
1.06571104
1.06553944
1.06536779
1.06519610
1.06502435
1.06485256
1.06468073
1.06450884
1.06433691
1.06416493
1.06399291
1.06382084
1.06364872
1.06347655
1.06330434
1.06313208
1.06295978
1.06278743
1.06261503
1.06244258
1.06227009
1.06209755
1.06192497
1.06175234
1.06157966
1.06140694
1.06123417
1.06106136
1.06088850
1.06071559
1.06054264
1.06036964
1.06019659
1.06002350
1.05985036
1.05967718
1.05950395
1.05933068
1.05915736
1.05898399
1.05881058
1.05863712
1.05846362
1.05829007
1.05811648
1.05794284
1.05776916
1.05759543
1.05742165
1.05724783
1.05707397
1.05690006
1.05672610
1.05655210
1.05637806
1.05620396
1.05602983
1.05585565
1.05568142
1.05550715
1.05533284
1.05515848
1.05498407
1.05480962
1.05463513
1.05446059
1.05428601
1.05411138
1.05393671
1.05376199
1.05358723
1.05341242
1.05323757
1.05306268
1.05288774
1.05271276
1.05253773
1.05236266
1.05218755
1.05201239
1.05183718
1.05166194
1.05148665
1.05131131
1.05113593
1.05096051
1.05078504
1.05060953
1.05043398
1.05025838
1.05008274
1.04990706
1.04973133
1.04955556
1.04937974
1.04920388
1.04902798
1.04885204
1.04867605
1.04850002
1.04832394
1.04814782
1.04797166
1.04779546
1.04761921
1.04744292
1.04726658
1.04709021
1.04691379
1.04673733
1.04656082
1.04638427
1.04620768
1.04603105
1.04585437
1.04567765
1.04550089
1.04532409
1.04514724
1.04497035
1.04479342
1.04461645
1.04443943
1.04426237
1.04408527
1.04390813
1.04373094
1.04355371
1.04337644
1.04319913
1.04302178
1.04284438
1.04266694
1.04248946
1.04231194
1.04213438
1.04195677
1.04177912
1.04160143
1.04142370
1.04124593
1.04106812
1.04089026
1.04071236
1.04053442
1.04035644
1.04017842
1.04000036
1.03982225
1.03964411
1.03946592
1.03928769
1.03910942
1.03893111
1.03875276
1.03857436
1.03839593
1.03821745
1.03803894
1.03786038
1.03768178
1.03750314
1.03732446
1.03714574
1.03696698
1.03678817
1.03660933
1.03643045
1.03625152
1.03607256
1.03589355
1.03571450
1.03553542
1.03535629
1.03517712
1.03499791
1.03481866
1.03463937
1.03446004
1.03428068
1.03410127
1.03392182
1.03374233
1.03356280
1.03338323
1.03320362
1.03302397
1.03284428
1.03266455
1.03248478
1.03230497
1.03212512
1.03194523
1.03176530
1.03158533
1.03140532
1.03122527
1.03104519
1.03086506
1.03068489
1.03050469
1.03032444
1.03014416
1.02996383
1.02978347
1.02960307
1.02942262
1.02924214
1.02906162
1.02888106
1.02870046
1.02851982
1.02833915
1.02815843
1.02797768
1.02779688
1.02761605
1.02743518
1.02725427
1.02707332
1.02689233
1.02671131
1.02653024
1.02634914
1.02616799
1.02598681
1.02580559
1.02562434
1.02544304
1.02526170
1.02508033
1.02489892
1.02471747
1.02453598
1.02435445
1.02417289
1.02399129
1.02380964
1.02362796
1.02344625
1.02326449
1.02308270
1.02290087
1.02271900
1.02253709
1.02235514
1.02217316
1.02199114
1.02180908
1.02162699
1.02144485
1.02126268
1.02108047
1.02089822
1.02071594
1.02053362
1.02035126
1.02016886
1.01998643
1.01980396
1.01962145
1.01943890
1.01925632
1.01907370
1.01889104
1.01870834
1.01852561
1.01834284
1.01816004
1.01797719
1.01779431
1.01761139
1.01742844
1.01724545
1.01706242
1.01687936
1.01669625
1.01651311
1.01632994
1.01614673
1.01596348
1.01578019
1.01559687
1.01541351
1.01523012
1.01504669
1.01486322
1.01467971
1.01449617
1.01431260
1.01412898
1.01394533
1.01376165
1.01357793
1.01339417
1.01321037
1.01302654
1.01284268
1.01265877
1.01247483
1.01229086
1.01210685
1.01192280
1.01173872
1.01155460
1.01137045
1.01118626
1.01100203
1.01081777
1.01063347
1.01044914
1.01026477
1.01008037
1.00989593
1.00971146
1.00952695
1.00934240
1.00915782
1.00897320
1.00878855
1.00860386
1.00841914
1.00823438
1.00804959
1.00786476
1.00767990
1.00749500
1.00731007
1.00712510
1.00694009
1.00675505
1.00656998
1.00638487
1.00619973
1.00601455
1.00582934
1.00564409
1.00545881
1.00527349
1.00508814
1.00490275
1.00471733
1.00453187
1.00434638
1.00416086
1.00397530
1.00378970
1.00360408
1.00341841
1.00323272
1.00304698
1.00286122
1.00267542
1.00248958
1.00230372
1.00211781
1.00193188
1.00174591
1.00155990
1.00137386
1.00118779
1.00100168
1.00081554
1.00062937
1.00044316
1.00025691
1.00007064
0.99988433
0.99969798
0.99951161
0.99932519
0.99913875
0.99895227
0.99876576
0.99857921
0.99839263
0.99820602
0.99801937
0.99783269
0.99764598
0.99745923
0.99727245
0.99708564
0.99689879
0.99671191
0.99652500
0.99633805
0.99615107
0.99596406
0.99577702
0.99558994
0.99540283
0.99521568
0.99502850
0.99484129
0.99465405
0.99446677
0.99427946
0.99409212
0.99390475
0.99371734
0.99352990
0.99334242
0.99315492
0.99296738
0.99277981
0.99259221
0.99240457
0.99221690
0.99202920
0.99184147
0.99165370
0.99146590
0.99127807
0.99109021
0.99090231
0.99071439
0.99052643
0.99033843
0.99015041
0.98996235
0.98977427
0.98958615
0.98939799
0.98920981
0.98902159
0.98883334
0.98864506
0.98845675
0.98826841
0.98808003
0.98789162
0.98770318
0.98751471
0.98732621
0.98713767
0.98694911
0.98676051
0.98657188
0.98638322
0.98619453
0.98600580
0.98581705
0.98562826
0.98543944
0.98525059
0.98506171
0.98487280
0.98468385
0.98449488
0.98430587
0.98411683
0.98392777
0.98373867
0.98354953
0.98336037
0.98317118
0.98298196
0.98279270
0.98260341
0.98241410
0.98222475
0.98203537
0.98184596
0.98165652
0.98146705
0.98127755
0.98108801
0.98089845
0.98070886
0.98051923
0.98032957
0.98013989
0.97995017
0.97976043
0.97957065
0.97938084
0.97919100
0.97900113
0.97881123
0.97862130
0.97843134
0.97824135
0.97805133
0.97786128
0.97767120
0.97748109
0.97729095
0.97710078
0.97691057
0.97672034
0.97653008
0.97633979
0.97614947
0.97595912
0.97576873
0.97557832
0.97538788
0.97519741
0.97500691
0.97481638
0.97462582
0.97443523
0.97424461
0.97405396
0.97386328
0.97367257
0.97348183
0.97329106
0.97310027
0.97290944
0.97271858
0.97252770
0.97233678
0.97214584
0.97195486
0.97176386
0.97157283
0.97138176
0.97119067
0.97099955
0.97080840
0.97061722
0.97042602
0.97023478
0.97004351
0.96985222
0.96966089
0.96946954
0.96927816
0.96908675
0.96889531
0.96870384
0.96851234
0.96832082
0.96812926
0.96793768
0.96774606
0.96755442
0.96736275
0.96717105
0.96697933
0.96678757
0.96659579
0.96640397
0.96621213
0.96602026
0.96582836
0.96563643
0.96544448
0.96525250
0.96506048
0.96486844
0.96467637
0.96448428
0.96429215
0.96410000
0.96390782
0.96371561
0.96352337
0.96333110
0.96313881
0.96294648
0.96275413
0.96256176
0.96236935
0.96217691
0.96198445
0.96179196
0.96159944
0.96140690
0.96121432
0.96102172
0.96082909
0.96063644
0.96044375
0.96025104
0.96005830
0.95986553
0.95967274
0.95947991
0.95928706
0.95909419
0.95890128
0.95870835
0.95851539
0.95832240
0.95812938
0.95793634
0.95774327
0.95755017
0.95735705
0.95716390
0.95697072
0.95677751
0.95658428
0.95639102
0.95619773
0.95600442
0.95581108
0.95561771
0.95542431
0.95523089
0.95503744
0.95484396
0.95465046
0.95445693
0.95426337
0.95406979
0.95387617
0.95368254
0.95348887
0.95329518
0.95310146
0.95290772
0.95271395
0.95252015
0.95232632
0.95213247
0.95193859
0.95174469
0.95155076
0.95135680
0.95116282
0.95096881
0.95077477
0.95058071
0.95038662
0.95019250
0.94999836
0.94980419
0.94961000
0.94941578
0.94922153
0.94902726
0.94883296
0.94863863
0.94844428
0.94824990
0.94805550
0.94786107
0.94766661
0.94747213
0.94727763
0.94708309
0.94688853
0.94669395
0.94649934
0.94630470
0.94611004
0.94591535
0.94572063
0.94552589
0.94533113
0.94513634
0.94494152
0.94474668
0.94455181
0.94435691
0.94416200
0.94396705
0.94377208
0.94357708
0.94338206
0.94318702
0.94299194
0.94279685
0.94260172
0.94240657
0.94221140
0.94201620
0.94182098
0.94162573
0.94143045
0.94123516
0.94103983
0.94084448
0.94064911
0.94045370
0.94025828
0.94006283
0.93986735
0.93967185
0.93947633
0.93928078
0.93908520
0.93888960
0.93869398
0.93849833
0.93830265
0.93810695
0.93791123
0.93771548
0.93751971
0.93732391
0.93712809
0.93693224
0.93673637
0.93654047
0.93634455
0.93614860
0.93595263
0.93575664
0.93556062
0.93536457
0.93516851
0.93497241
0.93477630
0.93458015
0.93438399
0.93418780
0.93399158
0.93379535
0.93359908
0.93340279
0.93320648
0.93301015
0.93281379
0.93261740
0.93242100
0.93222456
0.93202811
0.93183163
0.93163512
0.93143859
0.93124204
0.93104547
0.93084887
0.93065224
0.93045559
0.93025892
0.93006223
0.92986551
0.92966876
0.92947200
0.92927521
0.92907839
0.92888155
0.92868469
0.92848781
0.92829090
0.92809397
0.92789701
0.92770003
0.92750303
0.92730600
0.92710895
0.92691188
0.92671478
0.92651766
0.92632051
0.92612335
0.92592616
0.92572894
0.92553171
0.92533444
0.92513716
0.92493985
0.92474252
0.92454517
0.92434779
0.92415039
0.92395297
0.92375552
0.92355805
0.92336056
0.92316305
0.92296551
0.92276795
0.92257036
0.92237276
0.92217513
0.92197747
0.92177980
0.92158210
0.92138438
0.92118663
0.92098887
0.92079108
0.92059326
0.92039543
0.92019757
0.91999969
0.91980178
0.91960386
0.91940591
0.91920794
0.91900994
0.91881193
0.91861389
0.91841583
0.91821774
0.91801964
0.91782151
0.91762336
0.91742518
0.91722699
0.91702877
0.91683053
0.91663226
0.91643398
0.91623567
0.91603734
0.91583899
0.91564061
0.91544222
0.91524380
0.91504536
0.91484690
0.91464841
0.91444990
0.91425137
0.91405282
0.91385425
0.91365565
0.91345704
0.91325840
0.91305974
0.91286105
0.91266235
0.91246362
0.91226487
0.91206610
0.91186731
0.91166850
0.91146966
0.91127080
0.91107192
0.91087302
0.91067410
0.91047516
0.91027619
0.91007720
0.90987819
0.90967916
0.90948011
0.90928104
0.90908194
0.90888282
0.90868369
0.90848453
0.90828534
0.90808614
0.90788692
0.90768767
0.90748841
0.90728912
0.90708981
0.90689048
0.90669113
0.90649175
0.90629236
0.90609294
0.90589351
0.90569405
0.90549457
0.90529507
0.90509555
0.90489601
0.90469644
0.90449686
0.90429725
0.90409763
0.90389798
0.90369831
0.90349862
0.90329891
0.90309918
0.90289943
0.90269965
0.90249986
0.90230005
0.90210021
0.90190035
0.90170048
0.90150058
0.90130066
0.90110072
0.90090076
0.90070078
0.90050078
0.90030076
0.90010072
0.89990065
0.89970057
0.89950047
0.89930034
0.89910020
0.89890003
0.89869985
0.89849964
0.89829941
0.89809917
0.89789890
0.89769861
0.89749830
0.89729797
0.89709762
0.89689725
0.89669687
0.89649646
0.89629603
0.89609558
0.89589510
0.89569461
0.89549410
0.89529357
0.89509302
0.89489245
0.89469186
0.89449125
0.89429062
0.89408997
0.89388929
0.89368860
0.89348789
0.89328716
0.89308641
0.89288564
0.89268485
0.89248404
0.89228321
0.89208236
0.89188149
0.89168060
0.89147969
0.89127876
0.89107781
0.89087684
0.89067585
0.89047484
0.89027381
0.89007277
0.88987170
0.88967061
0.88946950
0.88926838
0.88906723
0.88886607
0.88866488
0.88846368
0.88826245
0.88806121
0.88785995
0.88765867
0.88745737
0.88725605
0.88705471
0.88685335
0.88665197
0.88645057
0.88624915
0.88604771
0.88584626
0.88564478
0.88544329
0.88524178
0.88504024
0.88483869
0.88463712
0.88443553
0.88423392
0.88403229
0.88383064
0.88362898
0.88342729
0.88322559
0.88302386
0.88282212
0.88262036
0.88241858
0.88221678
0.88201496
0.88181312
0.88161127
0.88140939
0.88120750
0.88100559
0.88080366
0.88060171
0.88039974
0.88019775
0.87999574
0.87979372
0.87959167
0.87938961
0.87918753
0.87898543
0.87878331
0.87858117
0.87837902
0.87817684
0.87797465
0.87777244
0.87757021
0.87736796
0.87716569
0.87696341
0.87676110
0.87655878
0.87635644
0.87615408
0.87595170
0.87574931
0.87554689
0.87534446
0.87514201
0.87493954
0.87473705
0.87453455
0.87433202
0.87412948
0.87392692
0.87372434
0.87352175
0.87331913
0.87311650
0.87291385
0.87271118
0.87250849
0.87230578
0.87210306
0.87190032
0.87169756
0.87149478
0.87129199
0.87108917
0.87088634
0.87068349
0.87048062
0.87027774
0.87007483
0.86987191
0.86966897
0.86946602
0.86926304
0.86906005
0.86885704
0.86865401
0.86845096
0.86824790
0.86804482
0.86784172
0.86763860
0.86743547
0.86723232
0.86702915
0.86682596
0.86662275
0.86641953
0.86621629
0.86601303
0.86580976
0.86560646
0.86540315
0.86519983
0.86499648
0.86479312
0.86458974
0.86438634
0.86418292
0.86397949
0.86377604
0.86357257
0.86336909
0.86316559
0.86296207
0.86275853
0.86255498
0.86235140
0.86214782
0.86194421
0.86174059
0.86153695
0.86133329
0.86112961
0.86092592
0.86072221
0.86051849
0.86031474
0.86011098
0.85990721
0.85970341
0.85949960
0.85929577
0.85909192
0.85888806
0.85868418
0.85848028
0.85827637
0.85807244
0.85786849
0.85766453
0.85746055
0.85725655
0.85705253
0.85684850
0.85664445
0.85644039
0.85623630
0.85603220
0.85582809
0.85562395
0.85541981
0.85521564
0.85501146
0.85480726
0.85460304
0.85439881
0.85419456
0.85399029
0.85378601
0.85358171
0.85337739
0.85317306
0.85296871
0.85276434
0.85255996
0.85235556
0.85215114
0.85194671
0.85174226
0.85153780
0.85133332
0.85112882
0.85092430
0.85071977
0.85051522
0.85031066
0.85010608
0.84990148
0.84969687
0.84949224
0.84928760
0.84908293
0.84887826
0.84867356
0.84846885
0.84826412
0.84805938
0.84785462
0.84764985
0.84744506
0.84724025
0.84703542
0.84683058
0.84662573
0.84642086
0.84621597
0.84601106
0.84580614
0.84560121
0.84539625
0.84519128
0.84498630
0.84478130
0.84457628
0.84437125
0.84416620
0.84396114
0.84375606
0.84355096
0.84334585
0.84314072
0.84293558
0.84273042
0.84252524
0.84232005
0.84211484
0.84190962
0.84170438
0.84149912
0.84129385
0.84108857
0.84088327
0.84067795
0.84047262
0.84026727
0.84006190
0.83985652
0.83965113
0.83944571
0.83924029
0.83903484
0.83882939
0.83862391
0.83841842
0.83821292
0.83800740
0.83780186
0.83759631
0.83739074
0.83718516
0.83697956
0.83677395
0.83656832
0.83636267
0.83615701
0.83595134
0.83574565
0.83553994
0.83533422
0.83512848
0.83492273
0.83471696
0.83451118
0.83430538
0.83409957
0.83389374
0.83368790
0.83348204
0.83327616
0.83307027
0.83286437
0.83265845
0.83245251
0.83224656
0.83204060
0.83183461
0.83162862
0.83142261
0.83121658
0.83101054
0.83080448
0.83059841
0.83039233
0.83018623
0.82998011
0.82977398
0.82956783
0.82936167
0.82915549
0.82894930
0.82874310
0.82853687
0.82833064
0.82812439
0.82791812
0.82771184
0.82750554
0.82729923
0.82709291
0.82688657
0.82668021
0.82647384
0.82626746
0.82606106
0.82585464
0.82564821
0.82544177
0.82523531
0.82502884
0.82482235
0.82461585
0.82440933
0.82420280
0.82399625
0.82378969
0.82358311
0.82337652
0.82316992
0.82296330
0.82275666
0.82255001
0.82234335
0.82213667
0.82192998
0.82172327
0.82151655
0.82130981
0.82110306
0.82089629
0.82068951
0.82048272
0.82027591
0.82006909
0.81986225
0.81965540
0.81944853
0.81924165
0.81903475
0.81882784
0.81862092
0.81841398
0.81820703
0.81800006
0.81779308
0.81758609
0.81737908
0.81717205
0.81696501
0.81675796
0.81655089
0.81634381
0.81613672
0.81592961
0.81572248
0.81551534
0.81530819
0.81510103
0.81489384
0.81468665
0.81447944
0.81427222
0.81406498
0.81385773
0.81365046
0.81344319
0.81323589
0.81302858
0.81282126
0.81261393
0.81240658
0.81219921
0.81199184
0.81178444
0.81157704
0.81136962
0.81116219
0.81095474
0.81074728
0.81053980
0.81033231
0.81012481
0.80991729
0.80970976
0.80950222
0.80929466
0.80908709
0.80887950
0.80867190
0.80846429
0.80825666
0.80804902
0.80784136
0.80763369
0.80742601
0.80721831
0.80701060
0.80680288
0.80659514
0.80638739
0.80617963
0.80597185
0.80576406
0.80555625
0.80534843
0.80514060
0.80493275
0.80472489
0.80451701
0.80430913
0.80410122
0.80389331
0.80368538
0.80347744
0.80326948
0.80306151
0.80285353
0.80264554
0.80243753
0.80222950
0.80202147
0.80181342
0.80160535
0.80139727
0.80118918
0.80098108
0.80077296
0.80056483
0.80035669
0.80014853
0.79994036
0.79973217
0.79952398
0.79931577
0.79910754
0.79889930
0.79869105
0.79848279
0.79827451
0.79806622
0.79785791
0.79764960
