corrn_curve_linear_TF
1.41200560
1.41145598
1.41090560
1.41035597
1.40980559
1.40925601
1.40870639
1.40815680
1.40760718
1.40705755
1.40650872
1.40595914
1.40541031
1.40486069
1.40431186
1.40376303
1.40321420
1.40266537
1.40211730
1.40156847
1.40102044
1.40047161
1.39992434
1.39937626
1.39882823
1.39828016
1.39773209
1.39718481
1.39663678
1.39608950
1.39554223
1.39499495
1.39444767
1.39390040
1.39335388
1.39280660
1.39226012
1.39171364
1.39116637
1.39061985
1.39007337
1.38952764
1.38898112
1.38843464
1.38788892
1.38734319
1.38679747
1.38625095
1.38570602
1.38516030
1.38461458
1.38406965
1.38352392
1.38297896
1.38243403
1.38188910
1.38134413
1.38079921
1.38025424
1.37970931
1.37916593
1.37862097
1.37807680
1.37753262
1.37698770
1.37644432
1.37590015
1.37535677
1.37481260
1.37426919
1.37372581
1.37318244
1.37263902
1.37209564
1.37155227
1.37100965
1.37046623
1.36992365
1.36938104
1.36883842
1.36829504
1.36775318
1.36721060
1.36666798
1.36612536
1.36558354
1.36504247
1.36449985
1.36395803
1.36341620
1.36287434
1.36233327
1.36179145
1.36125038
1.36070936
1.36016789
1.35962682
1.35908616
1.35854473
1.35800446
1.35746379
1.35692352
1.35638245
1.35584218
1.35530187
1.35476120
1.35422133
1.35368142
1.35314194
1.35260203
1.35206176
1.35152224
1.35098277
1.35044365
1.34990414
1.34936462
1.34882550
1.34828643
1.34774767
1.34720895
1.34667023
1.34613072
1.34559240
1.34505368
1.34451532
1.34397739
1.34343903
1.34290111
1.34236315
1.34182523
1.34128726
1.34074970
1.34021174
1.33967381
1.33913625
1.33859908
1.33806152
1.33752435
1.33698719
1.33645042
1.33591321
1.33537644
1.33484043
1.33430366
1.33376725
1.33323088
1.33269447
1.33215810
1.33162169
1.33108568
1.33054971
1.33001369
1.32947768
1.32894207
1.32840685
1.32787160
1.32733598
1.32680037
1.32626515
1.32572994
1.32519548
1.32466026
1.32412540
1.32359058
1.32305573
1.32252166
1.32198685
1.32145239
1.32091793
1.32038351
1.31984980
1.31931574
1.31878168
1.31824841
1.31771435
1.31718069
1.31664702
1.31611372
1.31558045
1.31504679
1.31451388
1.31398057
1.31344771
1.31291520
1.31238189
1.31184978
1.31131691
1.31078400
1.31025189
1.30971938
1.30918687
1.30865516
1.30812265
1.30759130
1.30705879
1.30652747
1.30599572
1.30546440
1.30493229
1.30440133
1.30386958
1.30333862
1.30280731
1.30227675
1.30174539
1.30121483
1.30068348
1.30015332
1.29962236
1.29909220
1.29856124
1.29803148
1.29750128
1.29697072
1.29644095
1.29591075
1.29538099
1.29485158
1.29432142
1.29379202
1.29326301
1.29273321
1.29220420
1.29167519
1.29114543
1.29061682
1.29008781
1.28955881
1.28903016
1.28850155
1.28797334
1.28744433
1.28691608
1.28638787
1.28586002
1.28533141
1.28480355
1.28427570
1.28374785
1.28321964
1.28269218
1.28216473
1.28163727
1.28111022
1.28058276
1.28005531
1.27952825
1.27900119
1.27847450
1.27794784
1.27742114
1.27689448
1.27636778
1.27584152
1.27531446
1.27478816
1.27426226
1.27373596
1.27321010
1.27268420
1.27215869
1.27163279
1.27110728
1.27058174
1.27005624
1.26953073
1.26900562
1.26848012
1.26795497
1.26743027
1.26690512
1.26638041
1.26585566
1.26533095
1.26480621
1.26428225
1.26375790
1.26323355
1.26270920
1.26218525
1.26166130
1.26113695
1.26061300
1.26008984
1.25956629
1.25904269
1.25851914
1.25799558
1.25747199
1.25694959
1.25642604
1.25590324
1.25538008
1.25485689
1.25433488
1.25381209
1.25328933
1.25276653
1.25224453
1.25172213
1.25119973
1.25067808
1.25015608
1.24963368
1.24911244
1.24859043
1.24806879
1.24754759
1.24702594
1.24650434
1.24598309
1.24546185
1.24494064
1.24441979
1.24389855
1.24337810
1.24285725
1.24233600
1.24181595
1.24129511
1.24077501
1.24025456
1.23973451
1.23921406
1.23869397
1.23817432
1.23765423
1.23713457
1.23661448
1.23609519
1.23557553
1.23505624
1.23453734
1.23401765
1.23349875
1.23297945
1.23246056
1.23194166
1.23142316
1.23090462
1.23038533
1.22986722
1.22934833
1.22883019
1.22831244
1.22779355
1.22727580
1.22675806
1.22623956
1.22572221
1.22520447
1.22468637
1.22416903
1.22365204
1.22313394
1.22261699
1.22210000
1.22158306
1.22106571
1.22054876
1.22003218
1.21951563
1.21899828
1.21848209
1.21796550
1.21744935
1.21693316
1.21641617
1.21590042
1.21538423
1.21486844
1.21435264
1.21383725
1.21332106
1.21280526
1.21228987
1.21177444
1.21125944
1.21074404
1.21022901
1.20971401
1.20919897
1.20868438
1.20816894
1.20765434
1.20713970
1.20662507
1.20611047
1.20559623
1.20508199
1.20456774
1.20405350
1.20353966
1.20302582
1.20251198
1.20199809
1.20148425
1.20097081
1.20045772
1.19994467
1.19943119
1.19891775
1.19840466
1.19789161
1.19737853
1.19686544
1.19635275
1.19584010
1.19532781
1.19481513
1.19430284
1.19379015
1.19327786
1.19276557
1.19225403
1.19174214
1.19122985
1.19071792
1.19020603
1.18969489
1.18918340
1.18867146
1.18815997
1.18764923
1.18713770
1.18662656
1.18611543
1.18560469
1.18509395
1.18458285
1.18407247
1.18356174
1.18305100
1.18254106
1.18203068
1.18151994
1.18101039
1.18050001
1.17998967
1.17948009
1.17897015
1.17846096
1.17795098
1.17744104
1.17693185
1.17642227
1.17591348
1.17540390
1.17489511
1.17438593
1.17387714
1.17336795
1.17285956
1.17235074
1.17184235
1.17133356
1.17082553
1.17031674
1.16980871
1.16930032
1.16879229
1.16828390
1.16777626
1.16726903
1.16676060
1.16625336
1.16574533
1.16523810
1.16473126
1.16422323
1.16371639
1.16320876
1.16270188
1.16219544
1.16168820
1.16118133
1.16067489
1.16016801
1.15966157
1.15915509
1.15864901
1.15814257
1.15763649
1.15713041
1.15662393
1.15611825
1.15561256
1.15510688
1.15460120
1.15409512
1.15358983
1.15308455
1.15257962
1.15207434
1.15156865
1.15106373
1.15055884
1.15005391
1.14954938
1.14904450
1.14853957
1.14803504
1.14753055
1.14702642
1.14652189
1.14601776
1.14551363
1.14500990
1.14450577
1.14400199
1.14349826
1.14299453
1.14249115
1.14198702
1.14148369
1.14098031
1.14047698
1.13997360
1.13947067
1.13896809
1.13846511
1.13796213
1.13745956
1.13695698
1.13645404
1.13595182
1.13544924
1.13494666
1.13444448
1.13394230
1.13344012
1.13293794
1.13243652
1.13193473
1.13143291
1.13093113
1.13042970
1.12992792
1.12942650
1.12892547
1.12842409
1.12792306
1.12742164
1.12692061
1.12642038
1.12591935
1.12541833
1.12491770
1.12441743
1.12391680
1.12341657
1.12291594
1.12241607
1.12191584
1.12141561
1.12091614
1.12041587
1.11991603
1.11941656
1.11891669
1.11841725
1.11791814
1.11741831
1.11691883
1.11642015
1.11592068
1.11542200
1.11492293
1.11442381
1.11392513
1.11342645
1.11292813
1.11242946
1.11193118
1.11143246
1.11093418
1.11043626
1.10993758
1.10944005
1.10894173
1.10844421
1.10794593
1.10744877
1.10695088
1.10645336
1.10595619
1.10545867
1.10496155
1.10446402
1.10396729
1.10346977
1.10297300
1.10247663
1.10197951
1.10148278
1.10098601
1.10048968
1.09999331
1.09949655
1.09900057
1.09850464
1.09800827
1.09751230
1.09701673
1.09652036
1.09602479
1.09552921
1.09503364
1.09453767
1.09404245
1.09354728
1.09305206
1.09255649
1.09206171
1.09156689
1.09107208
1.09057730
1.09008208
1.08958731
1.08909289
1.08859847
1.08810405
1.08760923
1.08711521
1.08662079
1.08612677
1.08563315
1.08513913
1.08464546
1.08415144
1.08365742
1.08316380
1.08267017
1.08217691
1.08168364
1.08119042
1.08069715
1.08020429
1.07971106
1.07921819
1.07872533
1.07823246
1.07773999
1.07724717
1.07675466
1.07626219
1.07576972
1.07527765
1.07478518
1.07429311
1.07380100
1.07330893
1.07281725
1.07232594
1.07183423
1.07134255
1.07085084
1.07035917
1.06986785
1.06937654
1.06888526
1.06839435
1.06790343
1.06741212
1.06692120
1.06643028
1.06593937
1.06544925
1.06495869
1.06446817
1.06397765
1.06348789
1.06299737
1.06250721
1.06201669
1.06152733
1.06103721
1.06054705
1.06005732
1.05956796
1.05907820
1.05858883
1.05809947
1.05761010
1.05712074
1.05663177
1.05614241
1.05565344
1.05516487
1.05467591
1.05418694
1.05369833
1.05320976
1.05272155
1.05223299
1.05174478
1.05125621
1.05076800
1.05028019
1.04979162
1.04930420
1.04881599
1.04832858
1.04784037
1.04735335
1.04686554
1.04637813
1.04589071
1.04540370
1.04491588
1.04442923
1.04394181
1.04345519
1.04296854
1.04248112
1.04199486
1.04150785
1.04102159
1.04053533
1.04004831
1.03956245
1.03907579
1.03858993
1.03810407
1.03761745
1.03713195
1.03664608
1.03616022
1.03567476
1.03518930
1.03470343
1.03421797
1.03373286
1.03324780
1.03276194
1.03227723
1.03179212
1.03130746
1.03082195
1.03033764
1.02985298
1.02936827
1.02888396
1.02839885
1.02791494
1.02743063
1.02694632
1.02646241
1.02597850
1.02549379
1.02501028
1.02452633
1.02404281
1.02355930
1.02307575
1.02259223
1.02210868
1.02162557
1.02114161
1.02065850
1.02017574
1.01969259
1.01920983
1.01872671
1.01824396
1.01776160
1.01727884
1.01679644
1.01631372
1.01583132
1.01534897
1.01486700
1.01438464
1.01390264
1.01342068
1.01293872
1.01245752
1.01197552
1.01149395
1.01101235
1.01053079
1.01004918
1.00956798
1.00908642
1.00860521
1.00812476
1.00764360
1.00716275
1.00668158
1.00620078
1.00571993
1.00523992
1.00475911
1.00427870
1.00379826
1.00331785
1.00283780
1.00235778
1.00187734
1.00139733
1.00091767
1.00043766
0.99995801
0.99947875
0.99899910
0.99851905
0.99803980
0.99756054
0.99708129
0.99660203
0.99612318
0.99564392
0.99516546
0.99468621
0.99420731
0.99372885
0.99325000
0.99277110
0.99229304
0.99181454
0.99133644
0.99085798
0.99038028
0.98990182
0.98942412
0.98894602
0.98846792
0.98799022
0.98751251
0.98703521
0.98655711
0.98608020
0.98560250
0.98512559
0.98464865
0.98417094
0.98369444
0.98321709
0.98274019
0.98226328
0.98178673
0.98131018
0.98083328
0.98035713
0.97988018
0.97940407
0.97892792
0.97845137
0.97797562
0.97749987
0.97702332
0.97654757
0.97607221
0.97559606
0.97512067
0.97464532
0.97416917
0.97369421
0.97321882
0.97274386
0.97226807
0.97179311
0.97131851
0.97084352
0.97036816
0.96989357
0.96941897
0.96894441
0.96847021
0.96799521
0.96752101
0.96704681
0.96657261
0.96609842
0.96562457
0.96515037
0.96467617
0.96420237
0.96372857
0.96325513
0.96278132
0.96230788
0.96183448
0.96136103
0.96088799
0.96041458
0.95994154
0.95946849
0.95899549
0.95852284
0.95804940
0.95757675
0.95710410
0.95663185
0.95615920
0.95568696
0.95521467
0.95474242
0.95427017
0.95379792
0.95332563
0.95285378
0.95238192
0.95191003
0.95143818
0.95096629
0.95049480
0.95002374
0.94955225
0.94908076
0.94860926
0.94813817
0.94766711
0.94719562
0.94672528
0.94625418
0.94578349
0.94531239
0.94484169
0.94437139
0.94390106
0.94343036
0.94296006
0.94249012
0.94201982
0.94154948
0.94107918
0.94060964
0.94013970
0.93966980
0.93920025
0.93873031
0.93826077
0.93779162
0.93732208
0.93685218
0.93638339
0.93591389
0.93544470
0.93497596
0.93450681
0.93403842
0.93356928
0.93310013
0.93263179
0.93216300
0.93169501
0.93122626
0.93075827
0.93028952
0.92982113
0.92935354
0.92888519
0.92841720
0.92794921
0.92748162
0.92701363
0.92654604
0.92607844
0.92561125
0.92514405
0.92467606
0.92420923
0.92374163
0.92327484
0.92280724
0.92234081
0.92187397
0.92140677
0.92094034
0.92047394
0.92000670
0.91954066
0.91907387
0.91860743
0.91814139
0.91767495
0.91720891
0.91674287
0.91627723
0.91581079
0.91534514
0.91487950
0.91441346
0.91394782
0.91348253
0.91301729
0.91255165
0.91208636
0.91162112
0.91115623
0.91069135
0.91022570
0.90976082
0.90929597
0.90883148
0.90836700
0.90790251
0.90743726
0.90697278
0.90650865
0.90604420
0.90558007
0.90511598
0.90465189
0.90418819
0.90372410
0.90326037
0.90279588
0.90233219
0.90186886
0.90140517
0.90094183
0.90047814
0.90001481
0.89955187
0.89908858
0.89862524
0.89816231
0.89769937
0.89723647
0.89677354
0.89631100
0.89584807
0.89538628
0.89492375
0.89446121
0.89399867
0.89353653
0.89307395
0.89261181
0.89214967
0.89168789
0.89122575
0.89076437
0.89030263
0.88984084
0.88937906
0.88891732
0.88845594
0.88799495
0.88753357
0.88707218
0.88661084
0.88615021
0.88568923
0.88522788
0.88476686
0.88430667
0.88384568
0.88338510
0.88292411
0.88246428
0.88200369
0.88154306
0.88108327
0.88062304
0.88016246
0.87970302
0.87924279
0.87878260
0.87832317
0.87786334
0.87740351
0.87694411
0.87648428
0.87602525
0.87556581
0.87510598
0.87464731
0.87418787
0.87372924
0.87326980
0.87281116
0.87235209
0.87189385
0.87143482
0.87097654
0.87051750
0.87005922
0.86960058
0.86914270
0.86868403
0.86822615
0.86776791
0.86731002
0.86685175
0.86639386
0.86593598
0.86547850
0.86502102
0.86456314
0.86410565
0.86364857
0.86319069
0.86273356
0.86227608
0.86181899
0.86136227
0.86090479
0.86044806
0.85999137
0.85953425
0.85907796
0.85862123
0.85816490
0.85770822
0.85725189
0.85679556
0.85633963
0.85588290
0.85542697
0.85497104
0.85451511
0.85405878
0.85360325
0.85314767
0.85269214
0.85223661
0.85178068
0.85132511
0.85086997
0.85041480
0.84995966
0.84950449
0.84904935
0.84859458
0.84813904
0.84768427
0.84722949
0.84677471
0.84632033
0.84586556
0.84541118
0.84495680
0.84450242
0.84404804
0.84359406
0.84314008
0.84268571
0.84223208
0.84177810
0.84132412
0.84087050
0.84041652
0.83996294
0.83950931
0.83905609
0.83860251
0.83814928
0.83769570
0.83724248
0.83678965
0.83633682
0.83588400
0.83543077
0.83497799
0.83452516
0.83407269
0.83361987
0.83316784
0.83271541
0.83226298
0.83181051
0.83135809
0.83090566
0.83045398
0.83000195
0.82954992
0.82909785
0.82864658
0.82819455
0.82774288
0.82729125
0.82683997
0.82638870
0.82593703
0.82548615
0.82503488
0.82458321
0.82413197
0.82368145
0.82323058
0.82277930
0.82232883
0.82187795
0.82142783
0.82097695
0.82052608
0.82007636
0.81962548
0.81917576
0.81872528
0.81827476
0.81782504
0.81737496
0.81692524
0.81647512
0.81602580
0.81557572
0.81512639
0.81467667
0.81422735
0.81377763
0.81332870
0.81287898
0.81243005
0.81198073
0.81153176
0.81108284
0.81063391
0.81018535
0.80973642
0.80928785
0.80883893
0.80839076
0.80794223
0.80749366
0.80704549
0.80659697
0.80614880
0.80570103
0.80525250
0.80480473
0.80435696
0.80390879
0.80346141
0.80301364
0.80256623
0.80211846
0.80167108
0.80122371
0.80077594
0.80032892
0.79988195
0.79943493
0.79898796
0.79854058
0.79809397
0.79764699
0.79720037
0.79675376
0.79630678
0.79586017
0.79541395
0.79496773
0.79452151
0.79407529
0.79362871
0.79318249
0.79273663
0.79229045
0.79184459
0.79139917
0.79095335
0.79050753
0.79006206
0.78961664
0.78917118
0.78872575
0.78828033
0.78783527
0.78738984
0.78694478
0.78649971
0.78605469
0.78561002
0.78516496
0.78472029
0.78427562
0.78383096
0.78338633
0.78294202
0.78249739
0.78205309
0.78160882
0.78116455
0.78072028
0.78027601
0.77983250
0.77938863
0.77894476
0.77850085
0.77805698
0.77761350
0.77717039
0.77672688
0.77628340
0.77583989
0.77539638
0.77495366
0.77451059
0.77406707
0.77362396
0.77318084
0.77273853
0.77229581
0.77185270
0.77141038
0.77096766
0.77052534
0.77008263
0.76964067
0.76919795
0.76875563
0.76831407
0.76787175
0.76742939
0.76698787
0.76654591
0.76610435
0.76566243
0.76522047
0.76477930
0.76433778
0.76389661
0.76345505
0.76301349
0.76257233
0.76213116
0.76169040
0.76124883
0.76080846
0.76036730
0.75992653
0.75948573
0.75904536
0.75860420
0.75816419
0.75772342
0.75728305
0.75684264
0.75640263
0.75596187
0.75552226
0.75508229
0.75464188
0.75420227
0.75376226
0.75332268
0.75288307
0.75244306
0.75200385
0.75156384
0.75112462
0.75068541
0.75024580
0.74980694
0.74936813
0.74892891
0.74848970
0.74805084
0.74761203
0.74717321
0.74673435
0.74629594
0.74585748
0.74541866
0.74498021
0.74454215
0.74410369
0.74366527
0.74322721
0.74278915
0.74235109
0.74191343
0.74147537
0.74103731
0.74059965
0.74016199
0.73972432
0.73928706
0.73884980
0.73841210
0.73797443
0.73753717
0.73710027
0.73666300
0.73622614
0.73578923
0.73535233
0.73491546
0.73447855
0.73404205
0.73360518
0.73316867
0.73273217
0.73229570
0.73185959
0.73142308
0.73098697
0.73055086
0.73011475
0.72967864
0.72924253
0.72880678
0.72837067
0.72793496
0.72749925
0.72706430
0.72662859
0.72619283
0.72575752
0.72532217
0.72488685
0.72445150
0.72401619
0.72358163
0.72314668
0.72271176
0.72227680
0.72184185
0.72140729
0.72097274
0.72053818
0.72010322
0.71966867
0.71923490
0.71880035
0.71836619
0.71793163
0.71749783
0.71706367
0.71662991
0.71619611
0.71576235
0.71532819
0.71489479
0.71446103
0.71402762
0.71359422
0.71316086
0.71272706
0.71229405
0.71186069
0.71142804
0.71099468
0.71056128
0.71012867
0.70969566
0.70926345
0.70883045
0.70839745
0.70796520
0.70753223
0.70709998
0.70666738
0.70623553
0.70580292
0.70537111
0.70493850
0.70450665
0.70407444
0.70364299
0.70321074
0.70277933
0.70234788
0.70191563
0.70148457
0.70105276
0.70062131
0.70019025
0.69975840
0.69932735
0.69889590
0.69846524
0.69803419
0.69760313
0.69717208
0.69674178
0.69631033
0.69588007
0.69544937
0.69501871
0.69458806
0.69415776
0.69372786
0.69329720
0.69286694
0.69243704
0.69200714
0.69157649
0.69114659
0.69071708
0.69028718
0.68985693
0.68942750
0.68899800
0.68856850
0.68813939
0.68770989
0.68727999
0.68685089
0.68642174
0.68599264
0.68556353
0.68513479
0.68470568
0.68427698
0.68384823
0.68341913
0.68299038
0.68256167
0.68213333
0.68170502
0.68127667
0.68084832
0.68041997
0.67999167
0.67956372
0.67913537
0.67870742
0.67827947
0.67785152
0.67742397
0.67699602
0.67656846
0.67614091
0.67571332
0.67528577
0.67485861
0.67443142
0.67400427
0.67357671
0.67314952
0.67272237
0.67229557
0.67186842
0.67144202
0.67101522
0.67058847
0.67016167
0.66973488
0.66930812
0.66888212
0.66845572
0.66802933
0.66760293
0.66717653
0.66675093
0.66632453
0.66589853
0.66547253
0.66504689
0.66462089
0.66419529
0.66376965
0.66334405
0.66291844
0.66249320
0.66206760
0.66164196
0.66121711
0.66079191
0.66036666
0.65994182
0.65951661
0.65909137
0.65866692
0.65824172
0.65781727
0.65739243
0.65696758
0.65654353
0.65611869
0.65569460
0.65527015
0.65484610
0.65442165
0.65399760
0.65357351
0.65314986
0.65272542
0.65230172
0.65187768
0.65145438
0.65103033
0.65060704
0.65018299
0.64975970
0.64933605
0.64891315
0.64848986
0.64806656
0.64764327
0.64722002
0.64679712
0.64637459
0.64595133
0.64552844
0.64510590
0.64468300
0.64426051
0.64383801
0.64341551
0.64299298
0.64257088
0.64214798
0.64172624
0.64130414
