corrn_curve_cubic_TF
1.61244002
1.61033770
1.60823772
1.60614586
1.60405635
1.60197507
1.59989885
1.59782797
1.59576212
1.59370146
1.59164895
1.58959876
1.58755655
1.58551652
1.58348458
1.58145776
1.57943606
1.57741947
1.57541074
1.57340434
1.57140592
1.56940967
1.56742412
1.56544073
1.56346252
1.56148921
1.55952093
1.55756052
1.55560241
1.55365200
1.55170658
1.54976614
1.54783067
1.54590016
1.54397727
1.54205667
1.54014379
1.53823584
1.53633003
1.53443177
1.53253855
1.53065283
1.52876925
1.52689068
1.52501957
1.52315332
1.52129191
1.51943264
1.51758361
1.51573669
1.51389459
1.51205998
1.51022749
1.50840233
1.50658207
1.50476658
1.50295572
1.50114974
1.49934838
1.49755189
1.49576523
1.49397806
1.49219820
1.49042305
1.48865012
1.48688693
1.48512583
1.48337196
1.48162018
1.47987549
1.47813556
1.47640025
1.47466945
1.47294338
1.47122193
1.46950746
1.46779506
1.46608988
1.46438914
1.46269296
1.46099898
1.45931426
1.45763184
1.45595383
1.45428035
1.45261383
1.45095413
1.44929417
1.44764112
1.44599256
1.44434835
1.44271101
1.44107583
1.43944737
1.43782347
1.43620268
1.43458750
1.43297792
1.43137049
1.42977088
1.42817447
1.42658360
1.42499477
1.42341263
1.42183472
1.42026012
1.41869217
1.41712842
1.41557026
1.41401513
1.41246329
1.41091790
1.40937692
1.40784122
1.40630866
1.40478037
1.40325745
1.40173889
1.40022545
1.39871635
1.39721146
1.39570857
1.39421321
1.39272093
1.39123383
1.38975211
1.38827335
1.38679995
1.38533060
1.38386549
1.38240441
1.38094854
1.37949571
1.37804710
1.37660357
1.37516519
1.37372984
1.37229962
1.37087348
1.36945245
1.36803432
1.36662139
1.36521448
1.36380961
1.36240970
1.36101390
1.35962201
1.35823421
1.35685031
1.35547141
1.35409659
1.35272563
1.35135862
1.34999659
1.34863949
1.34728623
1.34593598
1.34458966
1.34324824
1.34191072
1.34057898
1.33924924
1.33792426
1.33660326
1.33528601
1.33397457
1.33266513
1.33136039
1.33005949
1.32876250
1.32747106
1.32618256
1.32489786
1.32361885
1.32234172
1.32106931
1.31980066
1.31853662
1.31727643
1.31601904
1.31476716
1.31351807
1.31227372
1.31103391
1.30979596
1.30856447
1.30733491
1.30610894
1.30488847
1.30367075
1.30245669
1.30124809
1.30004131
1.29884078
1.29764127
1.29644806
1.29525747
1.29407147
1.29288728
1.29170924
1.29053301
1.28936211
1.28819398
1.28703107
1.28586995
1.28471411
1.28356008
1.28241215
1.28126602
1.28012511
1.27898599
1.27785291
1.27672239
1.27559458
1.27447193
1.27335181
1.27223607
1.27112453
1.27001484
1.26891016
1.26780973
1.26671106
1.26561745
1.26452724
1.26343886
1.26235624
1.26127617
1.26019948
1.25912688
1.25805771
1.25699269
1.25592941
1.25487097
1.25381594
1.25276494
1.25171575
1.25067135
1.24963025
1.24859243
1.24755719
1.24652671
1.24549948
1.24447552
1.24345556
1.24243808
1.24142384
1.24041359
1.23940655
1.23840341
1.23740355
1.23640681
1.23541332
1.23442295
1.23343657
1.23245187
1.23147175
1.23049551
1.22952168
1.22855180
1.22758497
1.22662199
1.22566140
1.22470464
1.22375091
1.22280034
1.22185286
1.22090917
1.21996783
1.21903021
1.21809642
1.21716489
1.21623719
1.21531244
1.21439080
1.21347210
1.21255781
1.21164582
1.21073683
1.20983083
1.20892850
1.20802915
1.20713208
1.20623865
1.20534953
1.20446268
1.20357870
1.20269772
1.20181966
1.20094446
1.20007415
1.19920483
1.19833966
1.19747678
1.19661673
1.19576150
1.19490783
1.19405709
1.19320915
1.19236533
1.19152371
1.19068492
1.18985017
1.18901765
1.18818732
1.18736161
1.18653751
1.18571676
1.18489947
1.18408427
1.18327190
1.18246285
1.18165655
1.18085306
1.18005286
1.17925477
1.17846063
1.17766860
1.17687867
1.17609326
1.17530933
1.17452924
1.17375128
1.17297660
1.17220399
1.17143458
1.17066846
1.16990435
1.16914351
1.16838467
1.16762962
1.16687666
1.16612684
1.16538018
1.16463498
1.16389352
1.16315407
1.16241776
1.16168402
1.16095340
1.16022528
1.15949865
1.15877623
1.15805524
1.15733783
1.15662349
1.15591007
1.15520074
1.15449391
1.15378854
1.15308723
1.15238786
1.15169048
1.15099658
1.15030562
1.14961563
1.14892961
1.14824598
1.14756483
1.14688559
1.14620928
1.14553585
1.14486488
1.14419527
1.14352955
1.14286570
1.14220478
1.14154618
1.14088894
1.14023562
1.13958409
1.13893541
1.13828906
1.13764554
1.13700335
1.13636398
1.13572740
1.13509308
1.13446159
1.13383190
1.13320493
1.13258029
1.13195786
1.13133822
1.13071984
1.13010471
1.12949177
1.12888107
1.12827264
1.12766686
1.12706330
1.12646194
1.12586278
1.12526629
1.12467198
1.12407985
1.12348986
1.12290207
1.12231691
1.12173431
1.12115389
1.12057513
1.11999855
1.11942450
1.11885261
1.11828280
1.11771510
1.11714994
1.11658692
1.11602638
1.11546749
1.11491110
1.11435636
1.11380411
1.11325392
1.11270659
1.11216092
1.11161686
1.11107522
1.11053564
1.10999888
1.10946374
1.10893016
1.10839903
1.10787068
1.10734349
1.10681869
1.10629586
1.10577540
1.10525690
1.10473999
1.10422575
1.10371309
1.10320237
1.10269436
1.10218784
1.10168288
1.10118101
1.10068021
1.10018136
1.09968512
1.09919042
1.09869833
1.09820734
1.09771825
1.09723175
1.09674671
1.09626427
1.09578292
1.09530415
1.09482682
1.09435169
1.09387800
1.09340686
1.09293711
1.09246955
1.09200342
1.09153976
1.09107718
1.09061706
1.09015838
1.08970177
1.08924660
1.08879384
1.08834317
1.08789317
1.08744595
1.08699975
1.08655596
1.08611422
1.08567314
1.08523479
1.08479743
1.08436241
1.08392944
1.08349745
1.08306743
1.08263943
1.08221272
1.08178801
1.08136491
1.08094377
1.08052396
1.08010606
1.07968977
1.07927477
1.07886201
1.07845085
1.07804127
1.07763327
1.07722653
1.07682200
1.07641903
1.07601790
1.07561803
1.07521939
1.07482289
1.07442795
1.07403451
1.07364289
1.07325251
1.07286361
1.07247652
1.07209095
1.07170714
1.07132452
1.07094367
1.07056429
1.07018668
1.06981022
1.06943549
1.06906223
1.06869042
1.06832030
1.06795105
1.06758382
1.06721797
1.06685355
1.06649052
1.06612920
1.06576952
1.06541095
1.06505376
1.06469823
1.06434406
1.06399100
1.06363981
1.06328971
1.06294096
1.06259382
1.06224802
1.06190354
1.06156039
1.06121906
1.06087880
1.06053981
1.06020215
1.05986603
1.05953094
1.05919738
1.05886535
1.05853436
1.05820486
1.05787635
1.05754936
1.05722413
1.05689962
1.05657634
1.05625455
1.05593420
1.05561484
1.05529695
1.05498000
1.05466473
1.05435042
1.05403730
1.05372583
1.05341504
1.05310569
1.05279772
1.05249067
1.05218503
1.05188073
1.05157714
1.05127489
1.05097426
1.05067426
1.05037586
1.05007833
1.04978189
1.04948680
1.04919280
1.04890010
1.04860827
1.04831775
1.04802804
1.04773965
1.04745253
1.04716603
1.04688123
1.04659702
1.04631430
1.04603218
1.04575171
1.04547186
1.04519322
1.04491579
1.04463916
1.04436374
1.04408910
1.04381588
1.04354320
1.04327190
1.04300179
1.04273223
1.04246385
1.04219639
1.04193011
1.04166475
1.04140011
1.04113682
1.04087448
1.04061281
1.04035227
1.04009285
1.03983390
1.03957627
1.03931952
1.03906366
1.03880847
1.03855454
1.03830150
1.03804929
1.03779776
1.03754748
1.03729803
1.03704941
1.03680165
1.03655449
1.03630837
1.03606325
1.03581894
1.03557544
1.03533253
1.03509082
1.03484969
1.03460955
1.03437037
1.03413177
1.03389412
1.03365705
1.03342073
1.03318536
1.03295074
1.03271702
1.03248403
1.03225180
1.03202026
1.03178963
1.03155955
1.03133033
1.03110182
1.03087401
1.03064706
1.03042064
1.03019505
1.02997014
1.02974591
1.02952251
1.02929960
1.02907752
1.02885606
1.02863527
1.02841529
1.02819610
1.02797736
1.02775925
1.02754175
1.02732487
1.02710875
1.02689323
1.02667832
1.02646415
1.02625057
1.02603739
1.02582496
1.02561309
1.02540178
1.02519138
1.02498133
1.02477185
1.02456290
1.02435482
1.02414694
1.02393973
1.02373290
1.02352706
1.02332141
1.02311625
1.02291178
1.02270794
1.02250442
1.02230155
1.02209916
1.02189724
1.02169578
1.02149495
1.02129442
1.02109449
1.02089517
1.02069613
1.02049753
1.02029950
1.02010191
1.01990488
1.01970812
1.01951192
1.01931598
1.01912057
1.01892572
1.01873096
1.01853704
1.01834318
1.01815000
1.01795688
1.01776459
1.01757235
1.01738061
1.01718923
1.01699833
1.01680747
1.01661738
1.01642733
1.01623791
1.01604878
1.01585968
1.01567133
1.01548298
1.01529522
1.01510776
1.01492028
1.01473354
1.01454676
1.01436055
1.01417461
1.01398864
1.01380335
1.01361818
1.01343325
1.01324871
1.01306440
1.01288017
1.01269632
1.01251282
1.01232955
1.01214619
1.01196347
1.01178080
1.01159849
1.01141605
1.01123424
1.01105248
1.01087088
1.01068960
1.01050818
1.01032737
1.01014656
1.00996591
1.00978554
1.00960532
1.00942493
1.00924512
1.00906526
1.00888569
1.00870624
1.00852687
1.00834763
1.00816847
1.00798957
1.00781045
1.00763172
1.00745321
1.00727462
1.00709625
1.00691782
1.00673957
1.00656153
1.00638339
1.00620543
1.00602739
1.00584950
1.00567166
1.00549399
1.00531620
1.00513855
1.00496093
1.00478332
1.00460599
1.00442836
1.00425088
1.00407337
1.00389587
1.00371832
1.00354089
1.00336330
1.00318581
1.00300855
1.00283098
1.00265347
1.00247579
1.00229819
1.00212050
1.00194305
1.00176523
1.00158747
1.00140962
1.00123169
1.00105380
1.00087582
1.00069758
1.00051938
1.00034121
1.00016279
0.99998438
0.99980598
0.99962731
0.99944835
0.99926954
0.99909058
0.99891148
0.99873221
0.99855294
0.99837335
0.99819389
0.99801395
0.99783397
0.99765396
0.99747362
0.99729307
0.99711263
0.99693182
0.99675096
0.99656975
0.99638860
0.99620695
0.99602536
0.99584338
0.99566117
0.99547886
0.99529632
0.99511367
0.99493046
0.99474745
0.99456388
0.99438033
0.99419650
0.99401210
0.99382788
0.99364305
0.99345809
0.99327284
0.99308742
0.99290170
0.99271553
0.99252934
0.99234252
0.99215570
0.99196853
0.99178088
0.99159320
0.99140518
0.99121649
0.99102777
0.99083886
0.99064926
0.99045960
0.99026958
0.99007888
0.98988827
0.98969710
0.98950572
0.98931361
0.98912144
0.98892901
0.98873602
0.98854247
0.98834881
0.98815473
0.98796024
0.98776548
0.98756995
0.98737431
0.98717823
0.98698170
0.98678472
0.98658743
0.98638954
0.98619117
0.98599251
0.98579337
0.98559391
0.98539381
0.98519337
0.98499246
0.98479104
0.98458929
0.98438687
0.98418411
0.98398082
0.98377704
0.98357289
0.98336787
0.98316266
0.98295692
0.98275080
0.98254397
0.98233677
0.98212899
0.98192068
0.98171180
0.98150236
0.98129232
0.98108191
0.98087091
0.98065932
0.98044715
0.98023437
0.98002117
0.97980758
0.97959317
0.97937816
0.97916253
0.97894646
0.97872979
0.97851229
0.97829469
0.97807610
0.97785706
0.97763719
0.97741685
0.97719605
0.97697457
0.97675225
0.97652946
0.97630617
0.97608204
0.97585720
0.97563170
0.97540588
0.97517917
0.97495178
0.97472387
0.97449506
0.97426573
0.97403588
0.97380512
0.97357346
0.97334163
0.97310871
0.97287521
0.97264119
0.97240623
0.97217090
0.97193444
0.97169722
0.97145964
0.97122108
0.97098215
0.97074207
0.97050159
0.97025995
0.97001770
0.96977508
0.96953127
0.96928684
0.96904162
0.96879579
0.96854895
0.96830150
0.96805323
0.96780435
0.96755465
0.96730368
0.96705250
0.96680007
0.96654723
0.96629311
0.96603876
0.96578334
0.96552687
0.96526994
0.96501217
0.96475306
0.96449374
0.96423311
0.96397180
0.96370982
0.96344672
0.96318296
0.96291828
0.96265293
0.96238622
0.96211905
0.96185095
0.96158171
0.96131177
0.96104111
0.96076953
0.96049679
0.96022331
0.95994891
0.95967377
0.95939767
0.95912017
0.95884215
0.95856319
0.95828347
0.95800278
0.95772111
0.95743800
0.95715436
0.95686994
0.95658434
0.95629793
0.95601055
0.95572215
0.95543300
0.95514258
0.95485136
0.95455865
0.95426541
0.95397136
0.95367605
0.95337993
0.95308254
0.95278433
0.95248532
0.95218503
0.95188365
0.95158147
0.95127822
0.95097393
0.95066853
0.95036232
0.95005476
0.94974688
0.94943741
0.94912684
0.94881518
0.94850268
0.94818877
0.94787405
0.94755822
0.94724151
0.94692344
0.94660476
0.94628470
0.94596348
0.94564112
0.94531765
0.94499328
0.94466804
0.94434137
0.94401354
0.94368458
0.94335496
0.94302392
0.94269145
0.94235803
0.94202403
0.94168827
0.94135162
0.94101347
0.94067498
0.94033474
0.93999326
0.93965119
0.93930758
0.93896249
0.93861705
0.93826979
0.93792132
0.93757220
0.93722155
0.93686965
0.93651685
0.93616246
0.93580744
0.93545086
0.93509270
0.93473419
0.93437382
0.93401281
0.93364990
0.93328634
0.93292115
0.93255535
0.93218762
0.93181920
0.93144889
0.93107788
0.93070528
0.93033199
0.92995673
0.92958082
0.92920329
0.92882474
0.92844453
0.92806332
0.92768078
0.92729724
0.92691236
0.92652579
0.92613822
0.92574963
0.92535901
0.92496767
0.92457467
0.92418063
0.92378554
0.92338842
0.92299058
0.92259140
0.92219044
0.92178883
0.92138544
0.92098101
0.92057487
0.92016763
0.91975899
0.91934930
0.91893748
0.91852495
0.91811100
0.91769563
0.91727847
0.91686060
0.91644126
0.91602052
0.91559833
0.91517433
0.91474921
0.91432304
0.91389538
0.91346629
0.91303570
0.91260368
0.91217053
0.91173518
0.91129907
0.91086148
0.91042240
0.90998222
0.90954015
0.90909698
0.90865230
0.90820612
0.90775843
0.90730962
0.90685929
0.90640705
0.90595404
0.90549915
0.90504272
0.90458513
0.90412563
0.90366499
0.90320277
0.90273941
0.90227413
0.90180766
0.90133927
0.90086968
0.90039894
0.89992663
0.89945275
0.89897687
0.89849988
0.89802126
0.89754143
0.89705963
0.89657709
0.89609252
0.89560635
0.89511854
0.89462916
0.89413817
0.89364638
0.89315259
0.89265717
0.89216008
0.89166225
0.89116194
0.89066040
0.89015726
0.88965287
0.88914685
0.88863872
0.88812984
0.88761885
0.88710575
0.88659148
0.88607637
0.88555917
0.88503985
0.88451976
0.88399753
0.88347450
0.88294889
0.88242160
0.88189396
0.88136327
0.88083224
0.88029861
0.87976323
0.87922708
0.87868878
0.87814920
0.87760742
0.87706487
0.87651968
0.87597367
0.87542545
0.87487597
0.87432426
0.87377179
0.87321658
0.87266060
0.87210238
0.87154284
0.87098159
0.87041858
0.86985424
0.86928768
0.86871980
0.86814969
0.86757875
0.86700557
0.86643055
0.86585425
0.86527569
0.86469580
0.86411462
0.86353065
0.86294585
0.86235924
0.86177030
0.86118058
0.86058851
0.85999510
0.85939938
0.85880235
0.85820349
0.85760226
0.85700020
0.85639635
0.85579060
0.85518305
0.85457310
0.85396232
0.85334920
0.85273469
0.85211833
0.85149959
0.85087947
0.85025803
0.84963470
0.84900950
0.84838240
0.84775291
0.84712203
0.84648976
0.84585513
0.84521905
0.84458169
0.84394185
0.84330010
0.84265694
0.84201192
0.84136492
0.84071605
0.84006525
0.83941305
0.83875837
0.83810229
0.83744426
0.83678434
0.83612301
0.83545913
0.83479389
0.83412669
0.83345753
0.83278646
0.83211390
0.83143889
0.83076239
0.83008397
0.82940356
0.82872118
0.82803680
0.82735159
0.82666385
0.82597410
0.82528229
0.82458854
0.82389340
0.82319682
0.82249760
0.82179643
0.82109317
0.82038789
0.81968185
0.81897322
0.81826184
0.81754907
0.81683426
0.81611870
0.81540045
0.81467950
0.81395780
0.81323339
0.81250758
0.81177906
0.81104972
0.81031706
0.80958299
0.80884811
0.80810989
0.80736952
0.80662848
0.80588461
0.80513933
0.80439135
0.80364121
0.80289032
0.80213673
0.80138164
0.80062377
0.79986378
0.79910237
0.79833884
0.79757389
0.79680542
0.79603692
0.79526490
0.79449144
0.79371578
0.79293875
0.79215818
0.79137751
0.79059335
0.78980774
0.78901992
0.78823065
0.78743787
0.78664500
0.78584932
0.78505068
0.78425132
0.78344906
0.78264542
0.78183953
0.78103073
0.78022121
0.77940803
0.77859412
0.77777803
0.77695900
0.77613918
0.77531723
0.77449233
0.77366522
0.77283657
0.77200578
0.77117278
0.77033748
0.76950078
0.76866179
0.76781988
0.76697642
0.76613150
0.76528357
0.76443347
0.76358182
0.76272793
0.76187179
0.76101417
0.76015351
0.75929060
0.75842620
0.75755955
0.75669062
0.75582021
0.75494754
0.75407171
0.75319367
0.75231416
0.75143307
0.75054898
0.74966341
0.74877546
0.74788521
0.74699274
0.74609789
0.74520155
0.74430216
0.74340120
0.74249793
0.74159242
0.74068533
0.73977509
0.73886336
0.73794930
0.73703291
0.73611418
0.73519311
0.73427047
0.73334471
0.73241746
0.73148785
0.73055752
0.72962321
0.72868645
0.72774828
0.72680766
0.72586476
0.72491940
0.72397175
0.72302338
0.72207177
0.72111786
0.72016149
0.71920272
0.71824245
0.71727978
0.71631472
0.71534638
0.71437652
0.71340604
0.71243137
0.71145519
0.71047570
0.70949550
0.70851207
0.70752713
0.70653967
0.70554989
0.70455676
0.70356294
0.70256586
0.70156717
0.70056604
0.69956256
0.69855562
0.69754808
0.69653726
0.69552566
0.69450993
0.69349164
0.69247276
0.69145049
0.69042763
0.68940042
0.68837073
0.68734037
0.68630581
0.68527050
0.68423184
0.68319251
0.68214888
0.68110467
0.68005604
0.67900676
0.67795410
0.67690078
0.67584301
0.67478479
0.67372396
0.67265865
0.67159378
0.67052452
0.66945362
0.66838119
0.66730425
0.66622677
0.66514575
0.66406421
0.66297912
0.66189150
0.66080133
0.65971053
0.65861426
0.65751847
0.65641902
0.65531711
0.65421263
0.65310652
0.65199887
0.65088671
0.64977300
0.64865765
0.64753973
0.64641726
0.64529418
0.64416956
0.64304132
0.64190954
0.64077737
0.63964241
0.63850484
0.63736574
0.63622298
0.63507655
0.63392964
0.63278002
0.63162789
0.63047315
0.62931676
0.62815678
0.62699526
0.62583101
0.62466315
0.62349364
0.62232161
0.62114792
0.61997170
0.61879274
0.61761113
0.61642688
0.61524009
0.61405165
0.61285944
0.61166569
0.61046928
0.60927021
0.60806959
0.60686519
0.60565924
0.60445062
0.60323922
0.60202525
0.60080974
0.59959143
0.59837055
0.59714585
0.59591949
0.59469055
0.59345994
0.59222561
0.59099076
0.58975207
0.58851078
0.58726668
0.58601986
0.58477044
0.58352053
0.58226674
0.58101022
0.57975098
0.57848902
0.57722669
0.57595927
0.57469030
0.57341860
0.57214523
0.57086805
0.56958932
0.56830773
0.56702351
0.56573655
0.56444791
0.56315544
0.56186009
0.56056440
0.55926486
0.55796243
0.55665846
0.55535062
0.55403989
0.55272883
0.55141266
0.55009606
0.54877544
0.54745203
0.54612832
0.54479933
0.54346992
0.54213660
0.54080173
0.53946281
0.53812235
0.53677895
0.53543414
0.53408399
0.53273344
0.53137893
0.53002403
0.52866388
0.52730334
0.52593755
0.52457137
0.52320120
0.52183065
0.52045598
0.51907847
0.51769813
0.51631508
0.51493035
0.51354396
0.51215237
0.51075910
0.50936417
0.50796520
0.50656469
0.50516132
0.50375509
0.50234586
0.50093523
0.49951907
0.49810391
0.49668467
