corrn_curve_quadratic_TF
1.25165109
1.25146739
1.25128303
1.25109852
1.25091335
1.25072804
1.25054231
1.25035618
1.25016964
1.24998269
1.24979561
1.24960786
1.24941997
1.24923140
1.24904269
1.24885358
1.24866407
1.24847415
1.24828409
1.24809336
1.24790251
1.24771097
1.24751957
1.24732749
1.24713502
1.24694213
1.24674884
1.24655542
1.24636134
1.24616712
1.24597249
1.24577747
1.24558204
1.24538621
1.24519025
1.24499361
1.24479686
1.24459971
1.24440186
1.24420389
1.24400554
1.24380705
1.24360788
1.24340831
1.24320863
1.24300854
1.24280805
1.24260687
1.24240588
1.24220419
1.24200210
1.24179991
1.24159702
1.24139401
1.24119062
1.24098683
1.24078263
1.24057804
1.24037303
1.24016765
1.23996245
1.23975625
1.23954995
1.23934326
1.23913587
1.23892869
1.23872080
1.23851281
1.23830413
1.23809534
1.23788616
1.23767659
1.23746661
1.23725624
1.23704548
1.23683462
1.23662305
1.23641141
1.23619936
1.23598691
1.23577377
1.23556082
1.23534720
1.23513317
1.23491874
1.23470424
1.23448963
1.23427402
1.23405833
1.23384224
1.23362575
1.23340917
1.23319190
1.23297454
1.23275681
1.23253850
1.23231996
1.23210118
1.23188171
1.23166231
1.23144236
1.23122217
1.23100127
1.23078030
1.23055893
1.23033701
1.23011503
1.22989264
1.22967003
1.22944686
1.22922314
1.22899935
1.22877518
1.22855077
1.22832581
1.22810045
1.22787487
1.22764891
1.22742270
1.22719611
1.22696913
1.22674143
1.22651384
1.22628569
1.22605731
1.22582872
1.22559955
1.22537018
1.22514041
1.22491026
1.22467971
1.22444894
1.22421761
1.22398591
1.22375398
1.22352182
1.22328911
1.22305618
1.22282287
1.22258934
1.22235523
1.22212092
1.22188656
1.22165148
1.22141617
1.22118049
1.22094441
1.22070795
1.22047110
1.22023403
1.21999659
1.21975875
1.21952053
1.21928209
1.21904345
1.21880440
1.21856481
1.21832483
1.21808465
1.21784408
1.21760346
1.21736212
1.21712056
1.21687863
1.21663630
1.21639395
1.21615086
1.21590756
1.21566387
1.21541982
1.21517571
1.21493106
1.21468602
1.21444096
1.21419515
1.21394915
1.21370276
1.21345615
1.21320918
1.21296165
1.21271408
1.21246594
1.21221763
1.21196910
1.21171982
1.21147072
1.21122088
1.21097064
1.21072039
1.21046957
1.21021838
1.20996718
1.20971522
1.20946342
1.20921070
1.20895817
1.20870505
1.20845176
1.20819770
1.20794382
1.20768918
1.20743454
1.20717935
1.20692415
1.20666818
1.20641221
1.20615549
1.20589896
1.20564167
1.20538438
1.20512633
1.20486849
1.20461005
1.20435106
1.20409208
1.20383251
1.20357277
1.20331284
1.20305215
1.20279146
1.20253059
1.20226895
1.20200733
1.20174533
1.20148258
1.20122002
1.20095689
1.20069339
1.20042969
1.20016563
1.19990140
1.19963639
1.19937138
1.19910602
1.19884047
1.19857416
1.19830785
1.19804117
1.19777412
1.19750651
1.19723891
1.19697093
1.19670258
1.19643406
1.19616497
1.19589550
1.19562586
1.19535584
1.19508564
1.19481508
1.19454413
1.19427283
1.19400113
1.19372929
1.19345667
1.19318406
1.19291128
1.19263793
1.19236443
1.19209054
1.19181649
1.19154186
1.19126706
1.19099187
1.19071633
1.19044042
1.19016435
1.18988770
1.18961087
1.18933389
1.18905632
1.18877860
1.18850049
1.18822204
1.18794319
1.18766440
1.18738503
1.18710528
1.18682517
1.18654490
1.18626426
1.18598304
1.18570166
1.18542035
1.18513845
1.18485616
1.18457352
1.18429051
1.18400712
1.18372400
1.18343989
1.18315582
1.18287119
1.18258617
1.18230144
1.18201590
1.18173001
1.18144374
1.18115754
1.18087075
1.18058360
1.18029649
1.18000882
1.17972057
1.17943258
1.17914382
1.17885488
1.17856582
1.17827616
1.17798615
1.17769597
1.17740543
1.17711455
1.17682350
1.17653186
1.17624030
1.17594816
1.17565543
1.17536300
1.17506977
1.17477659
1.17448285
1.17418897
1.17389450
1.17359987
1.17330512
1.17300976
1.17271429
1.17241821
1.17212221
1.17182565
1.17152893
1.17123208
1.17093441
1.17063683
1.17033866
1.17004036
1.16974169
1.16944290
1.16914371
1.16884373
1.16854408
1.16824361
1.16794321
1.16764268
1.16734113
1.16703988
1.16673827
1.16643586
1.16613376
1.16583107
1.16552781
1.16522463
1.16492131
1.16461696
1.16431294
1.16400854
1.16370379
1.16339846
1.16309300
1.16278739
1.16248145
1.16217467
1.16186823
1.16156118
1.16125404
1.16094652
1.16063816
1.16033018
1.16002159
1.15971287
1.15940379
1.15909460
1.15878457
1.15847442
1.15816416
1.15785351
1.15754277
1.15723143
1.15691995
1.15660814
1.15629595
1.15598367
1.15567053
1.15535753
1.15504416
1.15473043
1.15441637
1.15410217
1.15378761
1.15347270
1.15315744
1.15284206
1.15252633
1.15221024
1.15189378
1.15157698
1.15126008
1.15094304
1.15062567
1.15030768
1.14998935
1.14967090
1.14935211
1.14903295
1.14871344
1.14839381
1.14807386
1.14775378
1.14743310
1.14711232
1.14679093
1.14646944
1.14614759
1.14582587
1.14550357
1.14518067
1.14485764
1.14453428
1.14421105
1.14388725
1.14356281
1.14323830
1.14291392
1.14258868
1.14226334
1.14193765
1.14161186
1.14128572
1.14095901
1.14063240
1.14030521
1.13997767
1.13965029
1.13932228
1.13899369
1.13866552
1.13833646
1.13800707
1.13767782
1.13734800
1.13701831
1.13668776
1.13635688
1.13602615
1.13569481
1.13536364
1.13503160
1.13469973
1.13436725
1.13403469
1.13370152
1.13336852
1.13303488
1.13270119
1.13236688
1.13203273
1.13169773
1.13136288
1.13102744
1.13069190
1.13035577
1.13001980
1.12968374
1.12934655
1.12900980
1.12867217
1.12833473
1.12799721
1.12765855
1.12732033
1.12698124
1.12664231
1.12630333
1.12596347
1.12562350
1.12528348
1.12494282
1.12460211
1.12426103
1.12391987
1.12357813
1.12323629
1.12289410
1.12255129
1.12220868
1.12186573
1.12152243
1.12117879
1.12083454
1.12049048
1.12014608
1.11980158
1.11945650
1.11911079
1.11876527
1.11841942
1.11807321
1.11772693
1.11738005
1.11703281
1.11668550
1.11633788
1.11599016
1.11564182
1.11529342
1.11494467
1.11459586
1.11424643
1.11389691
1.11354708
1.11319690
1.11284664
1.11249550
1.11214458
1.11179329
1.11144169
1.11108972
1.11073771
1.11038562
1.11003290
1.10967985
1.10932674
1.10897328
1.10861924
1.10826536
1.10791089
1.10755608
1.10720121
1.10684600
1.10649045
1.10613457
1.10577888
1.10542260
1.10506595
1.10470899
1.10435195
1.10399431
1.10363660
1.10327883
1.10292046
1.10256201
1.10220294
1.10184382
1.10148494
1.10112514
1.10076501
1.10040482
1.10004456
1.09968370
1.09932279
1.09896126
1.09859994
1.09823802
1.09787577
1.09751373
1.09715077
1.09678780
1.09642475
1.09606108
1.09569739
1.09533359
1.09496894
1.09460422
1.09423974
1.09387434
1.09350919
1.09314342
1.09277728
1.09241113
1.09204464
1.09167809
1.09131093
1.09094374
1.09057589
1.09020802
1.08984009
1.08947127
1.08910296
1.08873374
1.08836477
1.08799490
1.08762553
1.08725530
1.08688500
1.08651463
1.08614366
1.08577266
1.08540103
1.08502966
1.08465736
1.08428530
1.08391320
1.08354020
1.08316717
1.08279378
1.08242039
1.08204664
1.08167225
1.08129814
1.08092372
1.08054864
1.08017353
1.07979840
1.07942232
1.07904653
1.07867040
1.07829394
1.07791685
1.07754000
1.07716285
1.07678535
1.07640724
1.07602941
1.07565122
1.07527270
1.07489388
1.07451439
1.07413492
1.07375539
1.07337553
1.07299534
1.07261452
1.07223398
1.07185280
1.07147161
1.07109039
1.07070854
1.07032664
1.06994413
1.06956129
1.06917844
1.06879526
1.06841202
1.06802847
1.06764461
1.06726040
1.06687617
1.06649133
1.06610645
1.06572124
1.06533571
1.06495015
1.06456400
1.06417776
1.06379123
1.06340438
1.06301751
1.06263000
1.06224248
1.06185461
1.06146644
1.06107826
1.06069003
1.06030117
1.05991201
1.05952250
1.05913269
1.05874285
1.05835268
1.05796221
1.05757171
1.05718088
1.05678941
1.05639793
1.05600613
1.05561401
1.05522220
1.05482971
1.05443694
1.05404384
1.05365102
1.05325728
1.05286349
1.05246910
1.05207531
1.05168060
1.05128552
1.05089048
1.05049540
1.05009968
1.04970396
1.04930792
1.04891156
1.04851487
1.04811819
1.04772086
1.04732353
1.04692620
1.04652823
1.04612994
1.04573162
1.04533301
1.04493437
1.04453512
1.04413584
1.04373595
1.04333603
1.04293611
1.04253526
1.04213503
1.04173383
1.04133296
1.04093112
1.04052994
1.04012779
1.03972564
1.03932318
1.03892072
1.03851729
1.03811450
1.03771075
1.03730735
1.03690360
1.03649890
1.03609484
1.03568984
1.03528514
1.03488013
1.03447417
1.03406885
1.03366256
1.03325660
1.03285034
1.03244312
1.03203651
1.03162929
1.03122175
1.03081423
1.03040639
1.02999790
1.02958943
1.02918094
1.02877217
1.02836241
1.02795331
1.02754356
1.02713386
1.02672314
1.02631311
1.02590246
1.02549146
1.02508049
1.02466852
1.02425726
1.02384533
1.02343310
1.02302089
1.02260836
1.02219484
1.02178202
1.02136851
1.02095507
1.02054131
1.02012720
1.01971281
1.01929807
1.01888340
1.01846769
1.01805239
1.01763708
1.01722111
1.01680517
1.01638862
1.01597205
1.01555552
1.01513833
1.01472114
1.01430336
1.01388554
1.01346744
1.01304938
1.01263065
1.01221193
1.01179293
1.01137361
1.01095465
1.01053467
1.01011477
1.00969452
1.00927399
1.00885312
1.00843228
1.00801082
1.00758936
1.00716826
1.00674621
1.00632413
1.00590146
1.00547880
1.00505578
1.00463320
1.00420960
1.00378605
1.00336214
1.00293797
1.00251379
1.00208935
1.00166421
1.00123914
1.00081408
1.00038840
0.99996272
0.99953709
0.99911080
0.99868384
0.99825728
0.99783041
0.99740323
0.99697575
0.99654831
0.99612021
0.99569251
0.99526379
0.99483508
0.99440645
0.99397717
0.99354753
0.99311834
0.99268845
0.99225861
0.99182814
0.99139805
0.99096696
0.99053625
0.99010487
0.98967319
0.98924156
0.98880962
0.98837773
0.98794482
0.98751268
0.98707952
0.98664677
0.98621368
0.98577959
0.98534629
0.98491191
0.98447764
0.98404305
0.98360849
0.98317362
0.98273812
0.98230300
0.98186685
0.98143116
0.98099513
0.98055843
0.98012216
0.97968558
0.97924796
0.97881077
0.97837365
0.97793548
0.97749771
0.97705967
0.97662060
0.97618232
0.97574333
0.97530444
0.97486448
0.97442499
0.97398552
0.97354539
0.97310461
0.97266424
0.97222356
0.97178262
0.97134171
0.97089975
0.97045824
0.97001642
0.96957430
0.96913187
0.96868948
0.96824645
0.96780312
0.96735986
0.96691630
0.96647277
0.96602861
0.96558447
0.96514008
0.96469535
0.96425068
0.96380539
0.96336012
0.96291456
0.96246873
0.96202294
0.96157610
0.96112971
0.96068302
0.96023640
0.95978911
0.95934190
0.95889434
0.95844653
0.95799842
0.95755000
0.95710125
0.95665261
0.95620368
0.95575441
0.95530488
0.95485500
0.95440521
0.95395554
0.95350516
0.95305447
0.95260349
0.95215258
0.95170142
0.95124954
0.95079847
0.95034637
0.94989436
0.94944166
0.94898906
0.94853653
0.94808368
0.94763017
0.94717676
0.94672339
0.94626938
0.94581504
0.94536043
0.94490626
0.94445141
0.94399630
0.94354124
0.94308550
0.94262985
0.94217429
0.94171804
0.94126115
0.94080505
0.94034795
0.93989087
0.93943392
0.93897629
0.93851910
0.93806087
0.93760235
0.93714431
0.93668555
0.93622727
0.93576796
0.93530909
0.93484919
0.93438934
0.93392998
0.93346958
0.93300924
0.93254861
0.93208807
0.93162685
0.93116573
0.93070431
0.93024299
0.92978138
0.92931868
0.92885684
0.92839395
0.92793156
0.92746808
0.92700546
0.92654215
0.92607819
0.92561469
0.92515093
0.92468605
0.92422207
0.92375704
0.92329208
0.92282722
0.92236167
0.92189622
0.92143049
0.92096486
0.92049814
0.92003193
0.91956542
0.91909823
0.91863114
0.91816412
0.91769685
0.91722888
0.91676099
0.91629285
0.91582477
0.91535641
0.91488699
0.91441804
0.91394885
0.91347972
0.91301031
0.91254060
0.91206984
0.91159955
0.91112934
0.91065851
0.91018772
0.90971668
0.90924535
0.90877413
0.90830222
0.90783039
0.90735749
0.90688512
0.90641282
0.90593987
0.90546700
0.90499347
0.90452002
0.90404669
0.90357270
0.90309838
0.90262418
0.90214970
0.90167496
0.90119990
0.90072496
0.90024932
0.89977458
0.89929878
0.89882268
0.89834631
0.89787005
0.89739305
0.89691622
0.89643910
0.89596207
0.89548438
0.89500718
0.89452932
0.89405114
0.89357267
0.89309396
0.89261533
0.89213683
0.89165763
0.89117814
0.89069841
0.89021914
0.88973921
0.88925862
0.88877807
0.88829811
0.88781704
0.88733610
0.88685445
0.88637373
0.88589193
0.88540981
0.88492827
0.88444599
0.88396305
0.88348104
0.88299791
0.88251454
0.88203167
0.88154810
0.88106425
0.88058058
0.88009616
0.87961229
0.87912773
0.87864245
0.87815812
0.87767270
0.87718784
0.87670185
0.87621642
0.87573025
0.87524468
0.87475798
0.87427180
0.87378454
0.87329780
0.87281039
0.87232351
0.87183549
0.87134804
0.87085993
0.87037192
0.86988320
0.86939462
0.86890576
0.86841705
0.86792805
0.86743835
0.86694879
0.86645937
0.86596883
0.86547881
0.86498812
0.86449758
0.86400715
0.86351562
0.86302462
0.86253339
0.86204140
0.86155004
0.86105792
0.86056595
0.86007332
0.85958079
0.85908798
0.85859532
0.85810152
0.85760830
0.85711480
0.85662103
0.85612654
0.85563263
0.85513841
0.85464394
0.85414920
0.85365375
0.85315841
0.85266326
0.85216779
0.85167209
0.85117607
0.85067981
0.85018366
0.84968641
0.84918970
0.84869272
0.84819546
0.84769836
0.84720054
0.84670289
0.84620495
0.84570674
0.84520825
0.84470992
0.84421131
0.84371199
0.84321322
0.84271378
0.84221406
0.84171447
0.84121420
0.84071409
0.84021366
0.83971339
0.83921245
0.83871164
0.83821015
0.83770877
0.83720757
0.83670609
0.83620433
0.83570185
0.83519959
0.83469700
0.83419454
0.83369141
0.83318888
0.83268564
0.83218212
0.83167828
0.83117421
0.83066986
0.83016609
0.82966164
0.82915691
0.82865187
0.82814744
0.82764189
0.82713647
0.82663082
0.82612529
0.82561949
0.82511297
0.82460707
0.82410045
0.82359311
0.82308599
0.82257940
0.82207213
0.82156414
0.82105678
0.82054869
0.82004118
0.81953255
0.81902365
0.81851577
0.81800632
0.81749790
0.81698835
0.81647849
0.81596925
0.81545933
0.81494955
0.81443905
0.81392918
0.81341817
0.81290776
0.81239662
0.81188566
0.81137397
0.81086292
0.81035070
0.80983911
0.80932679
0.80881461
0.80830221
0.80778953
0.80727699
0.80676378
0.80625070
0.80573694
0.80522378
0.80470993
0.80419577
0.80368180
0.80316714
0.80265263
0.80213830
0.80162284
0.80110797
0.80059283
0.80007697
0.79956175
0.79904581
0.79853001
0.79801352
0.79749723
0.79698067
0.79646337
0.79594669
0.79542978
0.79491255
0.79439511
0.79387693
0.79335936
0.79284111
0.79232300
0.79180463
0.79128557
0.79076666
0.79024795
0.78972896
0.78920971
0.78869019
0.78816999
0.78764994
0.78713003
0.78660949
0.78608905
0.78556886
0.78504793
0.78452674
0.78400570
0.78348443
0.78296286
0.78244106
0.78191900
0.78139709
0.78087450
0.78035206
0.77982935
0.77930642
0.77878365
0.77826014
0.77773684
0.77721327
0.77668944
0.77616538
0.77564144
0.77511685
0.77459237
0.77406768
0.77354272
0.77301750
0.77249201
0.77196715
0.77144160
0.77091578
0.77038966
0.76986331
0.76933718
0.76881120
0.76828449
0.76775756
0.76723032
0.76670282
0.76617600
0.76564848
0.76512019
0.76459210
0.76406375
0.76353608
0.76300768
0.76247853
0.76195008
0.76142088
0.76089190
0.76036218
0.75983310
0.75930285
0.75877282
0.75824343
0.75771287
0.75718200
0.75665187
0.75612095
0.75559025
0.75505886
0.75452715
0.75399614
0.75346444
0.75293290
0.75240063
0.75186809
0.75133577
0.75080319
0.75027083
0.74973725
0.74920485
0.74867122
0.74813782
0.74760410
0.74707065
0.74653598
0.74600245
0.74546774
0.74493325
0.74439845
0.74386387
0.74332812
0.74279351
0.74225820
0.74172210
0.74118670
0.74065057
0.74011470
0.73957853
0.73904161
0.73850541
0.73796797
0.73743124
0.73689426
0.73635653
0.73581946
0.73528219
0.73474417
0.73420589
0.73366779
0.73312947
0.73259090
0.73205203
0.73151343
0.73097452
0.73043492
0.72989549
0.72935630
0.72881636
0.72827621
0.72773625
0.72719603
0.72665554
0.72611530
0.72557430
0.72503304
0.72449202
0.72395074
0.72340921
0.72286791
0.72232635
0.72178399
0.72124142
0.72069909
0.72015695
0.71961411
0.71907150
0.71852859
0.71798542
0.71744205
0.71689837
0.71635492
0.71581078
0.71526682
0.71472261
0.71417819
0.71363397
0.71308899
0.71254425
0.71199925
0.71145400
0.71090850
0.71036274
0.70981717
0.70927090
0.70872487
0.70817858
0.70763299
0.70708620
0.70653910
0.70599229
0.70544518
0.70489787
0.70435025
0.70380243
0.70325530
0.70270742
0.70215933
0.70161094
0.70106230
0.70051390
0.69996525
0.69941635
0.69886669
0.69831727
0.69776861
0.69721869
0.69666903
0.69611860
0.69556888
0.69501845
0.69446827
0.69391779
0.69336710
0.69281566
0.69226493
0.69171348
0.69116224
0.69061075
0.69005906
0.68950655
0.68895481
0.68840236
0.68785057
0.68729761
0.68674435
0.68619186
0.68563860
0.68508611
0.68453235
0.68397834
0.68342505
0.68287058
0.68231679
0.68176228
0.68120849
0.68065348
0.68009924
0.67954372
0.67898893
0.67843342
0.67787864
0.67732258
0.67676735
0.67621182
0.67565501
0.67509948
0.67454274
0.67398620
0.67342993
0.67287238
0.67231561
0.67175807
0.67120131
0.67064379
0.67008602
0.66952800
0.66897071
0.66841167
0.66785393
0.66729538
0.66673662
0.66617762
0.66561883
0.66506032
0.66450057
0.66394109
0.66338182
0.66282231
0.66226156
0.66170155
0.66114182
0.66058131
0.66002009
0.65945971
0.65889897
0.65833799
0.65777729
0.65721581
0.65665357
0.65609212
0.65553036
0.65496842
0.65440623
0.65384425
0.65328157
0.65271915
0.65215644
0.65159301
0.65102980
0.65046640
0.64990322
0.64933985
0.64877617
0.64821226
0.64764809
0.64708373
0.64651960
0.64595469
0.64539007
0.64482520
0.64426008
0.64369524
0.64312963
0.64256430
0.64199872
0.64143285
0.64086678
0.64030099
0.63973491
0.63916863
0.63860158
0.63803476
0.63746775
0.63690096
0.63633346
0.63576672
0.63519920
0.63463149
0.63406349
0.63349523
0.63292679
0.63235911
0.63179065
0.63122195
0.63065301
0.63008382
0.62951545
0.62894578
0.62837639
0.62780675
0.62723736
0.62666724
0.62609740
0.62552728
0.62495696
0.62438639
0.62381607
0.62324502
0.62267367
0.62210315
0.62153191
0.62096037
0.62038912
0.61981715
0.61924488
0.61867344
0.61810073
0.61752881
0.61695610
0.61638316
0.61581104
0.61523761
0.61466495
0.61409157
0.61351849
0.61294463
0.61237106
0.61179720
0.61122369
0.61064885
0.61007481
0.60950003
0.60892604
0.60835078
0.60777630
0.60720056
0.60662561
0.60604992
0.60547503
0.60489935
0.60432343
0.60374727
0.60317092
0.60259482
0.60201897
0.60144190
0.60086508
0.60028851
0.59971120
0.59913421
0.59855697
0.59797949
0.59740172
0.59682430
0.59624556
0.59566816
0.59509002
