-1113.177838283073
-1111.149179837578
-1109.120945408126
-1107.093134887491
-1105.065748168446
-1103.038785143766
-1101.012245706224
-1098.986129748595
-1096.960437163652
-1094.93516784417
-1092.910321682922
-1090.885898572682
-1088.861898406225
-1086.838321076323
-1084.815166475752
-1082.792434497285
-1080.770125033696
-1078.748237977758
-1076.726773222247
-1074.705730659935
-1072.685110183598
-1070.664911686008
-1068.64513505994
-1066.625780198167
-1064.606846993464
-1062.588335338604
-1060.570245126362
-1058.552576249511
-1056.535328600826
-1054.51850207308
-1052.502096559047
-1050.486111951502
-1048.470548143218
-1046.455405026968
-1044.440682495528
-1042.426380441671
-1040.412498758171
-1038.399037337802
-1036.385996073337
-1034.373374857552
-1032.361173583219
-1030.349392143113
-1028.338030430007
-1026.327088336676
-1024.316565755894
-1022.306462580434
-1020.29677870307
-1018.287514016577
-1016.278668413729
-1014.270241787298
-1012.26223403006
-1010.254645034788
-1008.247474694256
-1006.240722901238
-1004.234389548508
-1002.22847452884
-1000.222977735008
-998.2178990597863
-996.213238395948
-994.2089956362674
-992.2051706735186
-990.2017634004754
-988.1987737099118
-986.1962014946018
-984.1940466473193
-982.1923090608382
-980.1909886279325
-978.1900852413762
-976.1895987939431
-974.1895291784074
-972.1898762875427
-970.1906400141231
-968.1918202509228
-966.1934168907153
-964.1954298262749
-962.1978589503753
-960.2007041557908
-958.2039653352949
-956.2076423816619
-954.2117351876656
-952.2162436460799
-950.2211676496788
-948.2265070912364
-946.2322618635264
-944.2384318593229
-942.2450169713998
-940.2520170925309
-938.2594321154904
-936.2672619330522
-934.2755064379902
-932.2841655230782
-930.2932390810904
-928.3027270048007
-926.3126291869828
-924.3229455204109
-922.3336758978591
-920.3448202121009
-918.3563783559105
-916.3683502220618
-914.3807357033288
-912.3935346924854
-910.4067470823056
-908.4203727655635
-906.4344116350326
-904.4488635834872
-902.4637285037012
-900.4790062884484
-898.4946968305029
-896.5108000226387
-894.5273157576296
-892.5442439282496
-890.5615844272726
-888.5793371474725
-886.5975019816235
-884.6160788224993
-882.635067562874
-880.6544680955215
-878.6742803132157
-876.6945041087306
-874.7151393748401
-872.7361860043181
-870.7576438899388
-868.7795129244759
-866.8017930007034
-864.8244840113953
-862.8475858493255
-860.8710984072679
-858.8950215779965
-856.9193552542854
-854.9440993289084
-852.9692536946393
-850.9948182442523
-849.0207928705213
-847.0471774662201
-845.0739719241228
-843.1011761370032
-841.1287899976355
-839.1568133987935
-837.185246233251
-835.214088393782
-833.2433397731608
-831.2730002641608
-829.3030697595565
-827.3335481521215
-825.3644353346298
-823.3957311998554
-821.4274356405721
-819.459548549554
-817.4920698195751
-815.5249993434093
-813.5583370138304
-811.5920827236125
-809.6262363655295
-807.6607978323553
-805.695767016864
-803.7311438118295
-801.7669281100257
-799.8031198042263
-797.8397187872058
-795.8767249517377
-793.9141381905961
-791.9519583965549
-789.9901854623881
-788.0288192808697
-786.0678597447735
-784.1073067468735
-782.1471601799439
-780.1874199367583
-778.2280859100906
-776.2691579927152
-774.3106360774057
-772.3525200569359
-770.3948098240802
-768.4375052716123
-766.480606292306
-764.5241127789355
-762.5680246242747
-760.6123417210974
-758.6570639621777
-756.7021912402896
-754.7477234482069
-752.7936604787035
-750.8400022245535
-748.8867485785308
-746.9338994334094
-744.9814546819631
-743.029414216966
-741.0777779311919
-739.126545717415
-737.1757174684088
-735.2252930769478
-733.2752724358055
-731.325655437756
-729.3764419755735
-727.4276319420314
-725.4792252299042
-723.5312217319655
-721.5836213409895
-719.6364239497499
-717.6896294510207
-715.743237737576
-713.7972487021897
-711.8516622376355
-709.9064782366877
-707.9616965921201
-706.0173171967067
-704.0733399432213
-702.1297647244379
-700.1865914331305
-698.2438199620731
-696.3014502040396
-694.3594820518039
-692.4179153981399
-690.4767501358217
-688.5359861576233
-686.5956233563182
-684.655661624681
-682.7161008554851
-680.7769409415048
-678.8381817755138
-676.8998232502863
-674.9618652585959
-673.024307693217
-671.0871504469233
-669.1503934124885
-667.214036482687
-665.2780795502925
-663.342522508079
-661.4073652488205
-659.4726076652908
-657.5382496502639
-655.6042910965139
-653.6707318968146
-651.73757194394
-649.804811130664
-647.8724493497607
-645.9404864940037
-644.0089224561673
-642.0777571290254
-640.1469904053517
-638.2166221779205
-636.2866523395055
-634.3570807828806
-632.42790740082
-630.4991320860975
-628.570754731487
-626.6427752297625
-624.715193473698
-622.7880093560674
-620.8612227696447
-618.9348336072037
-617.0088417615184
-615.083247125363
-613.158049591511
-611.2332490527367
-609.308845401814
-607.3848385315167
-605.4612283346189
-603.5380147038943
-601.6151975321172
-599.6927767120615
-597.7707521365007
-595.8491236982093
-593.9278912899609
-592.0070548045297
-590.0866141346894
-588.1665691732142
-586.2469198128778
-584.3276659464542
-582.4088074667175
-580.4903442664415
-578.5722762384003
-576.6546032753677
-574.7373252701176
-572.8204421154242
-570.9039537040612
-568.9878599288027
-567.0721606824225
-565.1568558576947
-563.2419453473932
-561.3274290442919
-559.4133068411647
-557.4995786307858
-555.5862443059289
-553.673303759368
-551.7607568838771
-549.8486035722301
-547.936843717201
-546.0254772115637
-544.1145039480922
-542.2039238195603
-540.2937367187421
-538.3839425384116
-536.4745411713426
-534.5655325103091
-532.656916448085
-530.7486928774443
-528.8408616911611
-526.933422782009
-525.0263760427623
-523.1197213661947
-521.2134586450802
-519.307587772193
-517.4021086403066
-515.4970211421953
-513.5923251706329
-511.6880206183932
-509.7841073782506
-507.8805853429786
-505.9774544053514
-504.0747144581429
-502.1723653941269
-500.2704071060775
-498.3688394867687
-496.4676624289742
-494.5668758254683
-492.6664795690247
-490.7664735524173
-488.8668576684203
-486.9676318098074
-485.0687958693526
-483.17034973983
-481.2722933140134
-479.3746264846768
-477.4773491445942
-475.5804611865393
-473.6839625032865
-471.7878529876093
-469.8921325322818
-467.996801030078
-466.101858373772
-464.2073044561374
-462.3131391699484
-460.4193624079788
-458.5259740630026
-456.6329740277938
-454.7403621951264
-452.8481384577742
-450.9563027085112
-449.0648548401113
-447.1737947453486
-445.2831223169969
-443.3928374478302
-441.5029400306224
-439.6134299581475
-437.7243071231796
-435.8355714184923
-433.94722273686
-432.0592609710561
-430.1716860138549
-428.2844977580304
-426.3976960963564
-424.5112809216068
-422.6252521265557
-420.7396096039769
-418.8543532466445
-416.9694829473323
-415.0849985988143
-413.2009000938644
-411.3171873252569
-409.4338601857653
-407.5509185681636
-405.668362365226
-403.7861914697263
-401.9044057744384
-400.0230051721362
-398.1419895555939
-396.2613588175853
-394.3811128508843
-392.5012515482649
-390.621774802501
-388.7426825063667
-386.8639745526357
-384.9856508340822
-383.1077112434799
-381.230155673603
-379.3529840172253
-377.4761961671206
-375.5997920160632
-373.7237714568269
-371.8481343821855
-369.9728806849131
-368.0980102577837
-366.223522993571
-364.3494187850492
-362.4756975249923
-360.6023591061739
-358.7294034213683
-356.8568303633492
-354.9846398248907
-353.1128316987666
-351.2414058777509
-349.3703622546178
-347.4997007221409
-345.6294211730944
-343.759523500252
-341.8900075963879
-340.020873354276
-338.1521206666899
-336.283749426404
-334.4157595261921
-332.5481508588281
-330.680923317086
-328.8140767937397
-326.947611181563
-325.0815263733302
-323.2158222618151
-321.3504987397915
-319.4855557000335
-317.620993035315
-315.7568106384099
-313.8930084020923
-312.0295862191359
-310.1665439823149
-308.3038815844033
-306.4415989181747
-304.5796958764032
-302.7181723518629
-300.8570282373275
-298.9962634255712
-297.1358778093679
-295.2758712814914
-293.4162437347156
-291.5569950618149
-289.6981251555626
-287.8396339087332
-285.9815212141002
-284.123786964438
-282.2664310525201
-280.4094533711208
-278.5528538130138
-276.6966322709733
-274.840788637773
-272.985322806187
-271.1302346689891
-269.2755241189536
-267.421191048854
-265.5672353514644
-263.713656919559
-261.8604556459114
-260.0076314232956
-258.1551841444858
-256.3031137022558
-254.4514199893795
-252.6001028986308
-250.7491623227837
-248.8985981546123
-247.0484102868903
-245.1985986123918
-243.3491630238908
-241.5001034141611
-239.6514196759769
-237.8031117021118
-235.9551793853399
-234.1076226184351
-232.2604412941715
-230.4136353053229
-228.5672045446635
-226.7211489049668
-224.8754682790071
-223.0301625595582
-221.1852316393941
-219.3406754112889
-217.4964937680162
-215.6526866023502
-213.8092538070648
-211.9661952749339
-210.1235108987314
-208.2812005712315
-206.4392641852079
-204.5977016334347
-202.7565128086857
-200.9156976037349
-199.0752559113563
-197.2351876243238
-195.3954926354113
-193.556170837393
-191.7172221230425
-189.8786463851339
-188.0404435164412
-186.2026134097383
-184.3651559577992
-182.5280710533978
-180.691358589308
-178.8550184583038
-177.0190505531591
-175.183454766648
-173.3482309915441
-171.5133791206219
-169.6788990466549
-167.8447906624172
-166.0110538606826
-164.1776885342254
-162.3446945758192
-160.512071878238
-158.6798203342559
-156.8479398366467
-155.0164302781845
-153.1852915516432
-151.3545235497967
-149.5241261654188
-147.6940992912838
-145.8644428201654
-144.0351566448376
-142.2062406580743
-140.3776947526495
-138.5495188213372
-136.7217127569113
-134.8942764521457
-133.0672097998145
-131.2405126926915
-129.4141850235505
-127.5882266851659
-125.7626375703112
-123.9374175717605
-122.112566582288
-120.2880844946673
-118.4639712016724
-116.6402265960774
-114.8168505706561
-112.9938430181826
-111.1712038314307
-109.3489329031745
-107.5270301261877
-105.7054953932446
-103.8843285971188
-102.0635296305845
-100.2430983864156
-98.42303475738595
-96.60333863626954
-94.78400991584033
-92.96504848887218
-91.14645424813921
-89.32822708641527
-87.51036689647435
-85.69287357109033
-83.87574700303708
-82.0589870850888
-80.24259371001926
-78.42656677060245
-76.61090615961234
-74.7956117698227
-72.98068349400796
-71.16612122494143
-69.35192485539756
-67.53809427814986
-65.72462938597278
-63.91153007163985
-62.09879622792528
-60.28642774760283
-58.47442452344649
-56.66278644823046
-54.85151341472829
-53.04060531571417
-51.23006204396188
-49.41988349224584
-47.61006955333937
-45.80062012001645
-43.99153508505174
-42.18281434121855
-40.37445778129086
-38.56646529804289
-36.75883678424839
-34.95157213268135
-33.14467123611576
-31.33813398732536
-29.53196027908461
-27.72615000416681
-25.92070305534639
-24.11561932539735
-22.3108987070932
-20.50654109320794
-18.70254637651578
-16.89891444979071
-15.09564520580648
-13.29273853733707
-11.49019433715648
-9.688012498038688
-7.886192912757451
-6.084735474086983
-4.283640074801042
-2.482906607673613
-0.6825349654786805
1.117474959009769
2.917123273017978
4.716410083771734
6.515335498497052
8.313899624420401
10.11210256876757
11.90994443876457
13.70742534163742
15.50454538461236
17.3013046749154
19.09770331977234
20.89374142640941
22.68941910205285
24.48473645392846
26.27969358926248
28.07429061528069
29.86852763920933
31.66240476827443
33.45592210970221
35.24907977071825
37.04187785854901
38.83431648042051
40.62639574355853
42.41811575518977
44.20947662253934
46.00047845283393
47.79112135329956
49.58140543116224
51.37133079364776
53.16089754798236
54.95010580139206
56.73895566110309
58.52744723434125
60.31558062833278
62.10335595030369
63.89077330747978
65.6778328070875
67.46453455635265
69.25087866250124
71.03686523275974
72.82249437435371
74.6077661945094
76.39268080045281
78.17723829940996
79.96143879860711
81.74528240527025
83.52876922662517
85.31189936989813
87.09467294231536
88.87709005110241
90.65915080348577
92.44085530669145
94.22220366794545
96.00319599447357
97.78383239350228
99.56411297225713
101.3440378379648
103.1236070978507
104.9028208591417
106.6816792290629
108.4601823148409
110.2383302237015
112.0161230628712
113.7935609395756
115.570643961041
117.3473722344932
119.1237458671585
120.8997649662629
122.6754296390322
124.4507399926929
126.2256961344708
128.0002981715918
129.7745462112823
131.5484403607682
133.3219807272753
135.0951674180301
136.8680005402584
138.6404802011862
140.4126065080397
142.184379568045
143.9557994884278
145.7268663764146
147.497580339231
149.2679414841036
151.0379499182579
152.8076057489202
154.5769090833167
156.3458600286733
158.114458692216
159.8827051811709
161.650599602764
163.4181420642215
165.1853326727694
166.9521715356336
168.7186587600404
170.4847944532157
172.2505787223856
174.0160116747761
175.7810934176132
177.5458240581231
179.3102037035317
181.0742324610653
182.8379104379494
184.6012377414108
186.3642144786752
188.1268407569685
189.8891166835172
191.6510423655466
193.4126179102834
195.1738434249535
196.9347190167828
198.6952447929975
200.4554208608238
202.2152473274873
203.9747243002143
205.7338518862309
207.4926301927633
209.2510593270372
211.0091393962789
212.7668705077144
214.5242527685698
216.281286286071
218.0379711674441
219.794307519915
221.5502954507101
223.3059350670553
225.0612264761764
226.8161697853002
228.5707651016519
230.3250125324578
232.0789121849443
233.8324641663371
235.5856685838623
237.3385255447463
239.0910351562145
240.8431975254935
242.5950127598092
244.3464809663874
246.0976022524544
247.8483767252362
249.5988044919591
251.3488856598487
253.0986203361313
254.8480086280331
256.5970506427798
258.3457464875976
260.0940962697127
261.842100096351
263.5897580747385
265.3370703121016
267.0840369156658
268.8306579926575
270.5769336503029
272.3228639958277
274.068449136458
275.81368917942
277.5585842319397
279.3031344012434
281.0473397945566
282.7912005191058
284.5347166821168
286.2778883908161
288.0207157524289
289.7631988741821
291.5053378633013
293.2471328270128
294.9885838725424
296.7296911071164
298.4704546379608
300.2108745723012
301.9509510173643
303.6906840803758
305.4300738685622
307.1691204891488
308.907824049362
310.6461846564282
312.3842024175729
314.1218774400227
315.859209831003
317.5961996977403
319.3328471474604
321.0691522873897
322.805115224754
324.5407360667796
326.2760149206922
328.0109518937181
329.7455470930831
331.4798006260137
333.2137125997356
334.9472831214746
336.6805122984572
338.4134002379096
340.1459470470575
341.8781528331269
343.6100177033441
345.3415417649348
347.0727251251255
348.8035678911419
350.5340701702103
352.2642320695568
353.994053696407
355.7235351579873
357.452676561524
359.1814780142427
360.9099396233694
362.6380614961304
364.3658437397521
366.0932864614597
367.8203897684798
369.5471537680387
371.2735785673619
372.9996642736755
374.725410994206
376.450818836179
378.1758879068209
379.9006183133572
381.6250101630146
383.3490635630189
385.0727786205962
386.7961554429726
388.5191941373737
390.241894811026
391.9642575711555
393.6862825249882
395.4079697797501
397.1293194426673
398.850331620966
400.571006421872
402.2913439526114
404.0113443204104
405.731007632495
407.4503339960911
409.1693235184248
410.8879763067225
412.6062924682099
414.3242721101128
416.0419153396579
417.7592222640708
419.4761929905778
421.1928276264046
422.9091262787776
424.6250890549227
426.3407160620663
428.0560074074338
429.7709631982518
431.4855835417459
433.1998685451424
434.9138183156676
436.6274329605471
438.3407125870074
440.0536573022739
441.7662672135734
443.4785424281315
445.1904830531744
446.9020891959281
448.6133609636186
450.3242984634721
452.0349018027146
453.7451710885721
455.4551064282705
457.1647079290362
458.8739756980949
460.582909842673
462.2915104699964
463.9997776872913
465.7077116017833
467.4153123206986
469.1225799512636
470.8295146007042
472.5361163762466
474.242385385116
475.9483217345398
477.653925531743
479.3591968839519
481.064135898393
482.7687426822918
484.4730173428745
486.1769599873674
487.8805707229963
489.583849656987
491.2867968965663
492.9894125489598
494.6916967213933
496.3936495210935
498.0952710552856
499.7965614311963
501.4975207560517
503.1981491370775
504.8984466815
506.5984134965449
508.2980496894386
509.997355367407
511.6963306376763
513.3949756074726
515.0932903840217
516.7912750745495
518.4889297862824
520.1862546264463
521.8832497022677
523.5799151209719
525.2762509897855
526.9722574159341
528.6679345066441
530.3632823691416
532.0583011106526
533.7529908384029
535.4473516596188
537.1413836815261
538.8350870113516
540.5284617563202
542.2215080236588
543.9142259205928
545.606615554349
547.2986770321529
548.990410461231
550.6818159488089
552.372893602113
554.0636435283691
555.7540658348034
557.4441606286418
559.1339280171105
560.8233681074357
562.5124810068428
564.2012668225586
565.8897256618091
567.5778576318198
569.2656628398172
570.9531413930272
572.6402933986758
574.3271189639893
576.0136181961934
577.6997912025142
579.3856380901782
581.0711589664111
582.7563539384387
584.4412231134875
586.1257665987835
587.8099845015524
589.4938769290209
591.1774439884141
592.860685786959
594.5436024318813
596.2261940304068
597.9084606897618
599.5904025171722
601.2720196198643
602.9533121050638
604.6342800799973
606.3149236518902
607.9952429279692
609.6752380154599
611.3549090215884
613.0342560535807
614.7132792186633
616.3919786240617
618.0703543770021
619.7484065847109
621.4261353544136
623.1035407933368
624.7806230087062
626.4573821077479
628.133818197688
629.8099313857526
631.4857217791678
633.1611894851592
634.8363346109534
636.5111572637763
638.1856575508541
639.8598355794122
641.5336914566776
643.2072252898754
644.8804371862323
646.5533272529742
648.2258955973273
649.8981423265172
651.5700675477703
653.2416713683126
654.91295389537
656.5839152361689
658.2545554979351
659.9248747878946
661.5948732132733
663.264550881298
664.9339078991939
666.6029443741875
668.2716604135046
669.9400561243717
671.6081316140144
673.2758869896588
674.9433223585311
676.6104378278574
678.2772335048635
679.9437094967759
681.60986591082
683.2757028542223
684.9412204342088
686.6064187580057
688.2712979328387
689.9358580659341
691.6000992645179
693.2640216358159
694.9276252870548
696.5909103254598
698.2538768582576
699.9165249926741
701.5788548359353
703.2408664952668
704.9025600778955
706.5639356910472
708.2249934419474
709.8857334378226
711.5461557858991
713.2062605934025
714.8660479675591
716.5255180155946
718.1846708447354
719.8435065622077
721.502025275237
723.1602270910498
724.818112116872
726.4756804599297
728.1329322274487
729.7898675266556
731.4464864647759
733.102789149036
734.7587756866619
736.4144461848794
738.069800750915
739.7248394919943
741.3795625153437
743.033969928189
744.6880618377561
746.3418383512715
747.9952995759611
749.648445619051
751.3012765877668
752.9537925893351
754.6059937309817
756.2578801199329
757.9094518634145
759.5607090686524
761.2116518428732
762.8622802933021
764.5125945271661
766.1625946516908
767.8122807741022
769.4616530016267
771.1107114414895
772.7594562009176
774.4078873871367
776.0560051073726
777.7038094688519
779.3513005788002
780.9984785444437
782.6453434730086
784.2918954717204
785.9381346478058
787.5840611084905
789.2296749610009
790.8749763125627
792.5199652704016
794.1646419417445
795.8090064338171
797.4530588538455
799.0967993090553
800.7402279066732
802.383344753925
804.0261499580367
805.6686436262344
807.3108258657442
808.9526967837917
810.5942564876036
812.2355050844058
813.8764426814239
815.5170693858845
817.1573853050131
818.7973905460367
820.4370852161803
822.0764694226705
823.7155432727334
825.3543068735949
826.9927603324807
828.6309037566175
830.2687372532309
831.9062609295472
833.5434748927923
835.1803792501926
836.8169741089735
838.4532595763617
840.0892357595826
841.7249027658629
843.3602607024284
844.995309676505
846.6300497953189
848.2644811660962
849.8986038960627
851.5324180924449
853.1659238624684
854.7991213133596
856.4320105523441
858.0645916866483
859.6968648234983
861.3288300701201
862.9604875337398
864.5918373215834
866.2228795408766
867.853614298846
869.4840417027171
871.1141618597164
872.7439748770698
874.3734808620036
876.0026799217435
877.6315721635156
879.2601576945458
880.8884366220607
882.5164090532862
884.1440750954478
885.771434855772
887.3984884414849
889.0252359598123
890.6516775179805
892.2778132232154
893.9036431827428
895.5291675037895
897.1543862935807
898.7792996593432
900.4039077083025
902.0282105476849
903.6522082847164
905.2759010266232
906.8992888806308
908.5223719539661
910.1451503538544
911.7676241875222
913.3897935621956
915.0116585851001
916.6332193634626
918.2544760045082
919.8754286154638
921.4960773035548
923.1164221760075
924.736463340048
926.3562009029024
927.9756349717968
929.594765653957
931.2135930566092
932.8321172869794
934.4503384522939
936.0682566597784
937.6858720166592
939.3031846301619
940.9201946075132
942.5369020559392
944.1533070826649
945.7694097949175
947.3852102999226
949.0007087049062
950.6159051170944
952.230799643713
953.8453923919888
955.459683469147
957.0736729824139
958.6873610390162
960.3007477461792
961.9138332111293
963.526617541092
965.1391008432943
966.7512832249613
968.3631647933198
969.9747456555951
971.5860259190144
973.1970056908026
974.8076850781863
976.4180641883913
978.0281431286439
979.6379220061704
981.2474009281959
982.8565800019473
984.4654593346504
986.0740390335313
987.6823192058159
989.2902999587309
990.8979813995011
992.5053636353537
994.112446773514
995.7192309212087
997.3257161856636
998.9319026741045
1000.537790493758
1002.143379751849
1003.748670555605
1005.353663012251
1006.958357229013
1008.562753313118
1010.166851371792
1011.77065151226
1013.374153841749
1014.977358467485
1016.580265496693
1018.1828750366
1019.785187194432
1021.387202077415
1022.988919792775
1024.590340447738
1026.19146414953
1027.792291005377
1029.392821122505
1030.99305460814
1032.592991569509
1034.192632113837
1035.791976348351
1037.391024380275
1038.989776316838
1040.588232265264
1042.186392332779
1043.78425662661
1045.381825253983
1046.979098322124
1048.576075938258
1050.172758209612
1051.769145243412
1053.365237146884
1054.961034027254
1056.556535991748
1058.151743147593
1059.746655602013
1061.341273462236
1062.935596835486
1064.529625828991
1066.123360549977
1067.716801105669
1069.309947603293
1070.902800150076
1072.495358853244
1074.087623820022
1075.679595157637
1077.271272973315
1078.862657374281
1080.453748467763
1082.044546360984
1083.635051161174
1085.225262975555
1086.815181911356
1088.404808075803
1089.99414157612
1091.583182519535
1093.171931013273
1094.76038716456
1096.348551080622
1097.936422868686
1099.524002635977
1101.111290489722
1102.698286537146
1104.284990885477
1105.871403641938
1107.457524913758
1109.043354808161
1110.628893432374
1112.214140893623
1113.799097299134
1115.383762756133
1116.968137371846
1118.552221253499
1120.136014508318
1121.719517243529
1123.302729566359
1124.885651584033
1126.468283403777
1128.050625132818
1129.632676878381
1131.214438747693
1132.795910847979
1134.377093286466
1135.957986170379
1137.538589606945
1139.11890370339
1140.69892856694
1142.278664304821
1143.858111024258
1145.437268832479
1147.016137836708
1148.594718144173
1150.173009862099
1151.751013097712
1153.328727958238
1154.906154550903
1156.483292982934
1158.060143361557
1159.636705793996
1161.21298038748
1162.788967249232
1164.36466648648
1165.94007820645
1167.515202516368
1169.09003952346
1170.664589334951
1172.238852058068
1173.812827800037
1175.386516668084
1176.959918769435
1178.533034211316
1180.105863100954
1181.678405545573
1183.250661652401
1184.822631528663
1186.394315281585
1187.965713018394
1189.536824846315
1191.107650872574
1192.678191204398
1194.248445949013
1195.818415213645
1197.388099105518
1198.957497731862
1200.526611199899
1202.095439616858
1203.663983089963
1205.232241726441
1206.800215633518
1208.367904918421
1209.935309688375
1211.502430050605
1213.069266112339
1214.635817980802
1216.202085763221
1217.768069566821
1219.333769498828
1220.899185666469
1222.464318176969
1224.029167137555
1225.593732655453
1227.158014837888
1228.722013792087
1230.285729625276
1231.84916244468
1233.412312357527
1234.975179471041
1236.53776389245
1238.100065728978
1239.662085087853
1241.2238220763
1242.785276801545
1244.346449370814
1245.907339891334
1247.46794847033
1249.028275215028
1250.588320232654
1252.148083630436
1253.707565515598
1255.266765995367
1256.825685176968
1258.384323167628
1259.942680074573
1261.500756005029
1263.058551066221
1264.616065365376
1266.173299009721
1267.73025210648
1269.286924762881
1270.843317086149
1272.39942918351
1273.95526116219
1275.510813129415
1277.066085192412
1278.621077458406
1280.175790034624
1281.730223028291
1283.284376546634
1284.838250696878
1286.39184558625
1287.945161321976
1289.498198011282
1291.050955761393
1292.603434679537
1294.155634872938
1295.707556448823
1297.259199514418
1298.81056417695
1300.361650543643
1301.912458721725
1303.462988818421
1305.013240940957
1306.56321519656
1308.112911692454
1309.662330535868
1311.211471834026
1312.760335694154
1314.308922223479
1315.857231529227
1317.405263718624
1318.953018898895
1320.500497177267
1322.047698660966
1323.594623457217
1325.141271673248
1326.687643416284
1328.233738793551
1329.779557912275
1331.325100879682
1332.870367802999
1334.415358789451
1335.960073946264
1337.504513380664
1339.048677199878
1340.592565511132
1342.136178421651
1343.679516038661
1345.22257846939
1346.765365821062
1348.307878200903
1349.850115716141
1351.392078474
1352.933766581707
1354.475180146489
1356.01631927557
1357.557184076177
1359.097774655536
1360.638091120874
1362.178133579416
1363.717902138388
1365.257396905017
1366.796617986528
1368.335565490147
1369.874239523101
1371.412640192615
1372.950767605916
1374.48862187023
1376.026203092782
1377.563511380798
1379.100546841506
1380.637309582131
1382.173799709899
1383.710017332035
1385.245962555767
1386.781635488319
1388.317036236919
1389.852164908792
1391.387021611164
1392.921606451261
1394.455919536309
1395.989960973536
1397.523730870165
1399.057229333424
1400.590456470538
1402.123412388735
1403.656097195239
1405.188510997276
1406.720653902073
1408.252526016856
1409.784127448851
1411.315458305283
1412.84651869338
1414.377308720367
1415.907828493469
1417.438078119914
1418.968057706927
1420.497767361734
1422.027207191561
1423.556377303635
1425.085277805181
1426.613908803426
1428.142270405594
1429.670362718914
1431.19818585061
1432.725739907909
1434.253024998036
1435.780041228218
1437.306788705681
1438.83326753765
1440.359477831353
1441.885419694014
1443.411093232861
1444.936498555119
1446.461635768013
1447.986504978771
1449.511106294618
1451.03543982278
1452.559505670484
1454.083303944954
1455.606834753419
1457.130098203103
1458.653094401232
1460.175823455033
1461.698285471731
1463.220480558553
1464.742408822725
1466.264070371472
1467.785465312022
1469.306593751599
1470.827455797431
1472.348051556742
1473.868381136759
1475.388444644708
1476.908242187816
1478.427773873307
1479.947039808409
1481.466040100348
1482.984774856348
1484.503244183637
1486.02144818944
1487.539386980985
1489.057060665495
1490.574469350198
1492.09161314232
1493.608492149086
1495.125106477723
1496.641456235458
1498.157541529514
1499.67336246712
1501.188919155501
1502.704211701883
1504.219240213492
1505.734004797553
1507.248505561295
1508.762742611941
1510.276716056719
1511.790426002854
1513.303872557573
1514.8170558281
1516.329975921663
1517.842632945488
1519.355027006801
1520.867158212827
1522.379026670792
1523.890632487924
1525.401975771448
1526.913056628589
1528.423875166574
1529.934431492629
1531.44472571398
1532.954757937854
1534.464528271475
1535.974036822071
1537.483283696866
1538.992269003088
1540.500992847963
1542.009455338715
1543.517656582573
1545.02559668676
1546.533275758505
1548.040693905031
1549.547851233567
1551.054747851337
1552.561383865568
1554.067759383485
1555.573874512316
1557.079729359285
1558.58532403162
1560.090658636545
1561.595733281287
1563.100548073073
1564.605103119127
1566.109398526677
1567.613434402948
1569.117210855167
1570.620727990559
1572.12398591635
1573.626984739767
1575.129724568035
1576.632205508381
1578.134427668031
1579.63639115421
1581.138096074145
1582.639542535061
1584.140730644186
1585.641660508744
1587.142332235963
1588.642745933067
1590.142901707283
1591.642799665838
1593.142439915957
1594.641822564866
1596.140947719791
1597.639815487958
1599.138425976594
1600.636779292925
1602.134875544175
1603.632714837572
1605.130297280342
1606.62762297971
1608.124692042903
1609.621504577147
1611.118060689668
1612.614360487691
1614.110404078443
1615.606191569151
1617.101723067039
1618.596998679334
1620.092018513263
1621.58678267605
1623.081291274923
1624.575544417107
1626.069542209828
1627.563284760312
1629.056772175786
1630.550004563476
1632.042982030607
1633.535704684406
1635.028172632098
1636.520385980909
1638.012344838067
1639.504049310796
1640.995499506324
1642.486695531874
1643.977637494675
1645.468325501952
1646.958759660931
1648.448940078838
1649.938866862899
1651.428540120341
1652.917959958388
1654.407126484268
1655.896039805206
1657.384700028429
1658.873107261162
1660.361261610632
1661.849163184063
