2283.9739
2285.3567
2286.7356
2288.1184
2289.4993
2290.8801
2292.261
2293.6399
2295.0188
2296.3997
2297.7786
2299.1575
2300.5364
2301.9153
2303.2922
2304.6711
2306.05
2307.427
2308.804
2310.1809
2311.5579
2312.9348
2314.3118
2315.6887
2317.0637
2318.4387
2319.8157
2321.1887
2322.5657
2323.9407
2325.3137
2326.6887
2328.0618
2329.4368
2330.8098
2332.1829
2333.5559
2334.927
2336.3
2337.6731
2339.0442
2340.4172
2341.7883
2343.1594
2344.5305
2345.9016
2347.2727
2348.6438
2350.0129
2351.384
2352.7512
2354.1223
2355.4915
2356.8606
2358.2278
2359.5969
2360.9661
2362.3333
2363.7004
2365.0676
2366.4368
2367.802
2369.1692
2370.5364
2371.9016
2373.2688
2374.634
2375.9993
2377.3645
2378.7297
2380.095
2381.4602
2382.8235
2384.1868
2385.552
2386.9153
2388.2786
2389.6418
2391.0051
2392.3684
2393.7297
2395.0911
2396.4543
2397.8157
2399.177
2400.5383
2401.8977
2403.261
2404.6204
2405.9817
2407.3411
2408.7004
2410.0598
2411.4202
2412.7795
2414.1379
2415.4963
2416.8547
2418.2122
2419.5696
2420.928
2422.2844
2423.6438
2425.0002
2426.3567
2427.7131
2429.0696
2430.425
2431.7815
2433.137
2434.4915
2435.8469
2437.2014
2438.5559
2439.9104
2441.2649
2442.6184
2443.9719
2445.3254
2446.679
2448.0325
2449.3831
2450.7356
2452.0881
2453.4407
2454.7922
2456.1438
2457.4954
2458.8469
2460.1975
2461.5471
2462.8977
2464.2473
2465.5979
2466.9475
2468.2971
2469.6448
2470.9944
2472.343
2473.6917
2475.0403
2476.387
2477.7356
2479.0833
2480.4309
2481.7766
2483.1243
2484.4709
2485.8176
2487.1624
2488.509
2489.8547
2491.1995
2492.5452
2493.8909
2495.2336
2496.5793
2497.9241
2499.2668
2500.6106
2501.9553
2503.2971
2504.6409
2505.9827
2507.3264
2508.6672
2510.01
2511.3528
2512.6936
2514.0354
2515.3762
2516.717
2518.0569
2519.3987
2520.7375
2522.0784
2523.4172
2524.7581
2526.0969
2527.4368
2528.7747
2530.1135
2531.4514
2532.7903
2534.1282
2535.4661
2536.803
2538.1399
2539.4778
2540.8137
2542.1506
2543.4866
2544.8225
2546.1594
2547.4944
2548.8284
2550.1653
2551.4993
2552.8333
2554.1692
2555.5022
2556.8362
2558.1711
2559.5042
2560.8362
2562.1692
2563.5032
2564.8352
2566.1672
2567.4993
2568.8323
2570.1633
2571.4944
2572.8254
2574.1555
2575.4875
2576.8176
2578.1477
2579.4778
2580.8069
2582.1379
2583.467
2584.7961
2586.1243
2587.4534
2588.7815
2590.1096
2591.4368
2592.7649
2594.093
2595.4202
2596.7473
2598.0745
2599.4006
2600.7268
2602.053
2603.3792
2604.7043
2606.0295
2607.3547
2608.6799
2610.0042
2611.3293
2612.6536
2613.9778
2615.301
2616.6252
2617.9485
2619.2717
2620.595
2621.9153
2623.2385
2624.5608
2625.8831
2627.2043
2628.5266
2629.8479
2631.1692
2632.4905
2633.8098
2635.1301
2636.4504
2637.7708
2639.0911
2640.4104
2641.7288
2643.0481
2644.3665
2645.6858
2647.0032
2648.3215
2649.6399
2650.9573
2652.2737
2653.5911
2654.9084
2656.2258
2657.5413
2658.8577
2660.1741
2661.4895
2662.8049
2664.1213
2665.4358
2666.7512
2668.0657
2669.3792
2670.6946
2672.009
2673.3215
2674.636
2675.9485
2677.262
2678.5754
2679.887
2681.2004
2682.512
2683.8245
2685.135
2686.4475
2687.7581
2689.0696
2690.3792
2691.6907
2693.0002
2694.3118
2695.6204
2696.9309
2698.2405
2699.55
2700.8586
2702.1682
2703.4758
2704.7854
2706.093
2707.3997
2708.7083
2710.0159
2711.3235
2712.6301
2713.9358
2715.2434
2716.5491
2717.8547
2719.1624
2720.467
2721.7717
2723.0784
2724.3831
2725.6868
2726.9924
2728.2961
2729.5999
2730.9036
2732.2083
2733.511
2734.8147
2736.1165
2737.4211
2738.7229
2740.0247
2741.3264
2742.6301
2743.9309
2745.2317
2746.5334
2747.8333
2749.134
2750.4358
2751.7356
2753.0364
2754.3352
2755.635
2756.9338
2758.2336
2759.5315
2760.8323
2762.1301
2763.429
2764.7268
2766.0247
2767.3215
2768.6194
2769.9163
2771.2131
2772.51
2773.8059
2775.1028
2776.3987
2777.6946
2778.9905
2780.2854
2781.5803
2782.8762
2784.1702
2785.4651
2786.76
2788.054
2789.3479
2790.6399
2791.9338
2793.2268
2794.5198
2795.8127
2797.1057
2798.3977
2799.6907
2800.9807
2802.2727
2803.5647
2804.8557
2806.1467
2807.4377
2808.7278
2810.0178
2811.3088
2812.5989
2813.8889
2815.177
2816.4661
2817.7561
2819.0452
2820.3323
2821.6213
2822.9094
2824.1965
2825.4846
2826.7727
2828.0598
2829.3459
2830.6331
2831.9202
2833.2053
2834.4924
2835.7776
2837.0637
2838.3499
2839.634
2840.9192
2842.2053
2843.4885
2844.7737
2846.0569
2847.3411
2848.6243
2849.9084
2851.1926
2852.4749
2853.7581
2855.0403
2856.3235
2857.6047
2858.887
2860.1682
2861.4504
2862.7317
2864.0129
2865.2932
2866.5735
2867.8547
2869.134
2870.4153
2871.6946
2872.9749
2874.2532
2875.5315
2876.8118
2878.0901
2879.3694
2880.6467
2881.9241
2883.2034
2884.4807
2885.7571
2887.0354
2888.3118
2889.5881
2890.8655
2892.1418
2893.4172
2894.6926
2895.969
2897.2444
2898.5188
2899.7942
2901.0696
2902.344
2903.6184
2904.8918
2906.1672
2907.4407
2908.7131
2909.9866
2911.259
2912.5315
2913.8059
2915.0784
2916.3499
2917.6213
2918.8928
2920.1643
2921.4358
2922.7083
2923.9788
2925.2493
2926.5198
2927.7903
2929.0598
2930.3293
2931.5989
2932.8684
2934.1379
2935.4065
2936.675
2937.9436
2939.2122
2940.4797
2941.7483
2943.0159
2944.2834
2945.55
2946.8176
2948.0842
2949.3508
2950.6174
2951.884
2953.1497
2954.4163
2955.6819
2956.9456
2958.2102
2959.4758
2960.7405
2962.0051
2963.2698
2964.5334
2965.7981
2967.0598
2968.3235
2969.5872
2970.8508
2972.1135
2973.3752
2974.6379
2975.8997
2977.1624
2978.4231
2979.6848
2980.9465
2982.2073
2983.467
2984.7288
2985.9895
2987.2502
2988.509
2989.7688
2991.0286
2992.2874
2993.5471
2994.8059
2996.0637
2997.3235
2998.5823
2999.8391
3001.0969
3002.3557
3003.6125
3004.8704
3006.1262
3007.3831
3008.6389
3009.8958
3011.1526
3012.4084
3013.6643
3014.9192
3016.175
3017.4299
3018.6848
3019.9387
3021.1946
3022.4475
3023.7024
3024.9553
3026.2102
3027.4631
3028.717
3029.969
3031.2209
3032.4749
3033.7258
3034.9797
3036.2307
3037.4836
3038.7346
3039.9846
3041.2366
3042.4875
3043.7375
3044.9885
3046.2385
3047.4875
3048.7385
3049.9875
3051.2366
3052.4875
3053.7356
3054.9836
3056.2336
3057.4817
3058.7297
3059.9768
3061.2258
3062.4729
3063.72
3064.9661
3066.2141
3067.4612
3068.7073
3069.9534
3071.1985
3072.4446
3073.6917
3074.9368
3076.1809
3077.426
3078.6711
3079.9153
3081.1594
3082.4045
3083.6487
3084.8918
3086.135
3087.3792
3088.6213
3089.8645
3091.1067
3092.3499
3093.592
3094.8333
3096.0754
3097.3176
3098.5588
3099.8
3101.0413
3102.2815
3103.5227
3104.7629
3106.0032
3107.2434
3108.4827
3109.7229
3110.9622
3112.2014
3113.4407
3114.679
3115.9182
3117.1565
3118.3948
3119.6311
3120.8694
3122.1067
3123.344
3124.5813
3125.8186
3127.0559
3128.2913
3129.5276
3130.7639
3132.0002
3133.2356
3134.47
3135.7053
3136.9407
3138.176
3139.4094
3140.6448
3141.8792
3143.1135
3144.3459
3145.5803
3146.8137
3148.0471
3149.2795
3150.5129
3151.7454
3152.9768
3154.2092
3155.4417
3156.6731
3157.9045
3159.135
3160.3674
3161.5989
3162.8284
3164.0588
3165.2903
3166.5198
3167.7502
3168.9788
3170.2092
3171.4377
3172.6672
3173.8948
3175.1243
3176.3518
3177.5813
3178.8098
3180.0364
3181.2649
3182.4915
3183.718
3184.9465
3186.1721
3187.3997
3188.6252
3189.8528
3191.0774
3192.304
3193.5295
3194.7542
3195.9797
3197.2043
3198.4299
3199.6545
3200.8782
3202.1028
3203.3264
3204.55
3205.7747
3206.9973
3208.22
3209.4436
3210.6663
3211.8879
3213.1116
3214.3333
3215.5549
3216.7756
3217.9983
3219.22
3220.4407
3221.6604
3222.8831
3224.1028
3225.3225
3226.5422
3227.762
3228.9827
3230.2024
3231.4211
3232.6399
3233.8586
3235.0774
3236.2952
3237.5149
3238.7327
3239.9504
3241.1682
3242.385
3243.6018
3244.8196
3246.0364
3247.2522
3248.469
3249.6848
3250.9026
3252.1184
3253.3342
3254.5491
3255.7639
3256.9797
3258.1946
3259.4084
3260.6233
3261.8372
3263.052
3264.2659
3265.4778
3266.6907
3267.9045
3269.1174
3270.3303
3271.5432
3272.7561
3273.968
3275.1799
3276.3918
3277.6038
3278.8137
3280.0256
3281.2366
3282.4475
3283.6584
3284.8694
3286.0784
3287.2883
3288.4983
3289.7083
3290.9182
3292.1262
3293.3352
3294.5452
3295.7542
3296.9612
3298.1692
3299.3782
3300.5862
3301.7932
3303.0002
3304.2083
3305.4143
3306.6213
3307.8284
3309.0354
3310.2405
3311.4475
3312.6516
3313.8577
3315.0637
3316.2688
3317.4739
3318.679
3319.8831
3321.0881
3322.2913
3323.4963
3324.7004
3325.9036
3327.1077
3328.3098
3329.5129
3330.7151
3331.9192
3333.1204
3334.3235
3335.5247
3336.7268
3337.928
3339.1301
3340.3313
3341.5325
3342.7327
3343.9338
3345.134
3346.3342
3347.5344
3348.7336
3349.9348
3351.1331
3352.3323
3353.5315
3354.7297
3355.9299
3357.1282
3358.3254
3359.5247
3360.7219
3361.9192
3363.1174
3364.3147
3365.511
3366.7092
3367.9055
3369.1008
3370.2971
3371.4944
3372.6897
3373.885
3375.0803
3376.2766
3377.4719
3378.6663
3379.8606
3381.0549
3382.2502
3383.4446
3384.6379
3385.8313
3387.0247
3388.218
3389.4124
3390.6047
3391.7971
3392.9895
3394.1819
3395.3743
3396.5657
3397.7571
3398.9504
3400.1418
3401.3323
3402.5237
3403.7141
3404.9045
3406.095
3407.2854
3408.4749
3409.6653
3410.8547
3412.0442
3413.2336
3414.4221
3415.6116
3416.8
3417.9885
3419.177
3420.3655
3421.553
3422.7405
3423.928
3425.1145
3426.302
3427.4885
3428.675
3429.8625
3431.0491
3432.2346
3433.4211
3434.6057
3435.7913
3436.9768
3438.1624
3439.3479
3440.5325
3441.7161
3442.9006
3444.0852
3445.2698
3446.4534
3447.636
3448.8196
3450.0032
3451.1868
3452.3684
3453.551
3454.7346
3455.9153
3457.0979
3458.2805
3459.4612
3460.6428
3461.8245
3463.0061
3464.1858
3465.3674
3466.5471
3467.7278
3468.9084
3470.0872
3471.2678
3472.4475
3473.6262
3474.8059
3475.9836
3477.1633
3478.3411
3479.5198
3480.6995
3481.8762
3483.0549
3484.2317
3485.4094
3486.5862
3487.7639
3488.9397
3490.1174
3491.2932
3492.47
3493.6458
3494.8206
3495.9973
3497.1721
3498.3479
3499.5227
3500.6985
3501.8723
3503.0471
3504.2219
3505.3958
3506.5706
3507.7434
3508.9163
3510.0911
3511.2639
3512.4358
3513.6096
3514.7825
3515.9543
3517.1272
3518.2991
3519.4709
3520.6418
3521.8147
3522.9856
3524.1555
3525.3264
3526.4983
3527.6682
3528.8381
3530.0081
3531.179
3532.3489
3533.5178
3534.6868
3535.8557
3537.0266
3538.1946
3539.3635
3540.5315
3541.6995
3542.8674
3544.0354
3545.2024
3546.3713
3547.5383
3548.7053
3549.8723
3551.0383
3552.2053
3553.3713
3554.5374
3555.7034
3556.8694
3558.0344
3559.2004
3560.3655
3561.5305
3562.6946
3563.8596
3565.0237
3566.1887
3567.3528
3568.5168
3569.6799
3570.844
3572.0071
3573.1702
3574.3333
3575.4963
3576.6594
3577.8215
3578.9827
3580.1448
3581.3069
3582.468
3583.6301
3584.7913
3585.9524
3587.1125
3588.2737
3589.4338
3590.595
3591.7551
3592.9153
3594.0735
3595.2336
3596.3928
3597.553
3598.7112
3599.8694
3601.0286
3602.1877
3603.345
3604.5032
3605.6614
3606.8186
3607.9758
3609.134
3610.2913
3611.4475
3612.6047
3613.762
3614.9172
3616.0735
3617.2288
3618.385
3619.5413
3620.6956
3621.8518
3623.0061
3624.1614
3625.3167
3626.47
3627.6252
3628.7786
3629.9329
3631.0862
3632.2405
3633.3928
3634.5461
3635.6985
3636.8528
3638.0042
3639.1575
3640.3088
3641.4622
3642.6135
3643.7659
3644.9163
3646.0686
3647.219
3648.3704
3649.5208
3650.6711
3651.8225
3652.9719
3654.1223
3655.2717
3656.4211
3657.5715
3658.72
3659.8684
3661.0188
3662.1672
3663.3147
3664.4641
3665.6125
3666.76
3667.9084
3669.0559
3670.2024
3671.3499
3672.4973
3673.6438
3674.7903
3675.9368
3677.0842
3678.2297
3679.3752
3680.5208
3681.6663
3682.8127
3683.9573
3685.1028
3686.2473
3687.3918
3688.5354
3689.6809
3690.8254
3691.969
3693.1125
3694.2561
3695.3987
3696.5422
3697.6848
3698.8274
3699.97
3701.1125
3702.2561
3703.3977
3704.5403
3705.6819
3706.8235
3707.9641
3709.1057
3710.2463
3711.387
3712.5276
3713.6682
3714.8088
3715.9485
3717.0891
3718.2268
3719.3665
3720.5061
3721.6458
3722.7844
3723.9231
3725.0618
3726.2004
3727.3391
3728.4768
3729.6135
3730.7512
3731.8889
3733.0266
3734.1643
3735.301
3736.4387
3737.5735
3738.7102
3739.8469
3740.9836
3742.1194
3743.2542
3744.3899
3745.5256
3746.6614
3747.7952
3748.9299
3750.0647
3751.1985
3752.3333
3753.467
3754.6018
3755.7346
3756.8684
3758.0022
3759.134
3760.2678
3761.4006
3762.5325
3763.6653
3764.7971
3765.9299
3767.0618
3768.1926
3769.3245
3770.4553
3771.5872
3772.718
3773.8489
3774.9797
3776.1096
3777.2405
3778.3694
3779.5002
3780.6292
3781.759
3782.8879
3784.0178
3785.1458
3786.2756
3787.4036
3788.5325
3789.6604
3790.7893
3791.9163
3793.0442
3794.1711
3795.2981
3796.426
3797.553
3798.6799
3799.8069
3800.9319
3802.0598
3803.1848
3804.3108
3805.4368
3806.5618
3807.6868
3808.8127
3809.9377
3811.0618
3812.1877
3813.3118
3814.4358
3815.5598
3816.6838
3817.8079
3818.9309
3820.0549
3821.178
3822.301
3823.4231
3824.5461
3825.6692
3826.7913
3827.9133
3829.0344
3830.1565
3831.2776
3832.4006
3833.5217
3834.6418
3835.7629
3836.8831
3838.0042
3839.1243
3840.2454
3841.3655
3842.4846
3843.6047
3844.7239
3845.843
3846.9622
3848.0803
3849.1995
3850.3176
3851.4368
3852.5549
3853.6721
3854.7903
3855.9084
3857.0256
3858.1428
3859.26
3860.3772
3861.4934
3862.6106
3863.7268
3864.843
3865.9592
3867.0754
3868.1917
3869.3059
3870.4211
3871.5364
3872.6516
3873.7668
3874.8811
3875.9963
3877.1096
3878.2239
3879.3381
3880.4514
3881.5657
3882.679
3883.7913
3884.9045
3886.0178
3887.1311
3888.2424
3889.3547
3890.468
3891.5803
3892.6907
3893.803
3894.9143
3896.0266
3897.136
3898.2473
3899.3586
3900.469
3901.5793
3902.6897
3903.7991
3904.9094
3906.0198
3907.1282
3908.2385
3909.3479
3910.4563
3911.5657
3912.6731
3913.7825
3914.8909
3915.9983
3917.1067
3918.2141
3919.3225
3920.429
3921.5374
3922.6428
3923.7512
3924.8567
3925.9641
3927.0696
3928.177
3929.2815
3930.3889
3931.4934
3932.5999
3933.7043
3934.8108
3935.9143
3937.0188
3938.1243
3939.2278
3940.3333
3941.4368
3942.5403
3943.6448
3944.7483
3945.8518
3946.9553
3948.0579
3949.1614
3950.2639
3951.3655
3952.469
3953.5706
3954.6721
3955.7737
3956.8762
3957.9768
3959.0784
3960.179
3961.2805
3962.3811
3963.4817
3964.5823
3965.6829
3966.7825
3967.8821
3968.9817
3970.0813
3971.1819
3972.2805
3973.3792
3974.4778
3975.5764
3976.675
3977.7747
3978.8723
3979.97
3981.0676
3982.1653
3983.2629
3984.3606
3985.4573
3986.554
3987.6506
3988.7473
3989.845
3990.9417
3992.0374
3993.1331
3994.2288
3995.3245
3996.4202
3997.5149
3998.6096
3999.7053
4000.8
4001.8948
4002.9875
4004.0813
4005.176
4006.2698
4007.3635
4008.4573
4009.551
4010.6438
4011.7366
4012.8303
4013.9231
4015.0139
4016.1067
4017.1985
4018.2913
4019.3831
4020.4749
4021.5657
4022.6565
4023.7483
4024.8391
4025.9309
4027.0198
4028.1106
4029.2014
4030.2913
4031.3821
4032.4709
4033.5608
4034.6506
4035.7385
4036.8284
4037.9172
4039.0061
4040.094
4041.1829
4042.2717
4043.3586
4044.4465
4045.5344
4046.6213
4047.7092
4048.7961
4049.8831
4050.9709
4052.0559
4053.1438
4054.2288
4055.3157
4056.4026
4057.4875
4058.5735
4059.6584
4060.7444
4061.8284
4062.9143
4063.9983
4065.0833
4066.1672
4067.2522
4068.3352
4069.4202
4070.5032
4071.5872
4072.6702
4073.7542
4074.8372
4075.9202
4077.0032
4078.0852
4079.1682
4080.2493
4081.3323
4082.4143
4083.4954
4084.5774
4085.6584
4086.7395
4087.8206
4088.9016
4089.9817
4091.0627
4092.1428
4093.2229
4094.304
4095.3831
4096.4619
4097.542
4098.6221
4099.7012
4100.7793
4101.8594
4102.9375
4104.0156
4105.0938
4106.1719
4107.251
4108.3281
4109.4062
4110.4834
4111.5605
4112.6387
4113.7148
4114.792
4115.8682
4116.9443
4118.0205
4119.0967
4120.1729
4121.25
4122.3252
4123.4004
4124.4756
4125.5508
4126.626
4127.7002
4128.7744
4129.8496
4130.9238
4131.998
4133.0713
4134.1455
4135.2188
4136.293
4137.3662
4138.4395
4139.5117
4140.585
4141.6572
4142.7305
4143.8027
4144.875
4145.9463
4147.0186
4148.0908
4149.1602
4150.2324
4151.3037
4152.374
4153.4453
4154.5166
4155.5869
4156.6572
4157.7266
4158.7969
4159.8662
4160.9365
4162.0059
4163.0742
4164.1436
4165.2129
4166.2822
4167.3506
4168.4189
4169.4873
4170.5557
4171.624
4172.6904
4173.7588
4174.8262
4175.8926
4176.9609
4178.0273
4179.0938
4180.1611
4181.2275
4182.293
4183.3594
4184.4258
4185.4912
4186.5576
4187.623
4188.6875
4189.7529
4190.8174
4191.8828
4192.9482
4194.0117
4195.0771
4196.1406
4197.2051
4198.2676
4199.332
4200.3945
4201.459
4202.5215
4203.585
4204.6475
4205.7109
4206.7725
4207.835
4208.8965
4209.96
4211.0205
4212.083
4213.1445
4214.2061
4215.2666
4216.3271
4217.3887
4218.4492
4219.5107
