2281.1594
2282.5403
2283.9231
2285.304
2286.6868
2288.0676
2289.4485
2290.8293
2292.2102
2293.5911
2294.97
2296.3508
2297.7297
2299.1106
2300.4895
2301.8684
2303.2473
2304.6262
2306.0032
2307.3821
2308.759
2310.1379
2311.5129
2312.8899
2314.2668
2315.6438
2317.0208
2318.3958
2319.7727
2321.1477
2322.5227
2323.8977
2325.2727
2326.6477
2328.0208
2329.3958
2330.7688
2332.1418
2333.5168
2334.8899
2336.2629
2337.634
2339.0071
2340.3801
2341.7512
2343.1223
2344.4934
2345.8665
2347.2356
2348.6067
2349.9778
2351.3469
2352.718
2354.0872
2355.4563
2356.8254
2358.1946
2359.5637
2360.9329
2362.302
2363.6672
2365.0364
2366.4036
2367.7708
2369.1399
2370.5051
2371.8723
2373.2375
2374.6047
2375.97
2377.3352
2378.7004
2380.0657
2381.4309
2382.7961
2384.1594
2385.5247
2386.8879
2388.2512
2389.6145
2390.9797
2392.3411
2393.7043
2395.0676
2396.4309
2397.7922
2399.1516
2400.5149
2401.8762
2403.2375
2404.5989
2405.9583
2407.3196
2408.679
2410.0383
2411.3987
2412.7581
2414.1165
2415.4768
2416.8342
2418.1926
2419.55
2420.9094
2422.2668
2423.6243
2424.9827
2426.3391
2427.6956
2429.051
2430.4075
2431.7649
2433.1204
2434.4758
2435.8303
2437.1858
2438.5413
2439.8958
2441.2502
2442.6038
2443.9573
2445.3108
2446.6663
2448.0188
2449.3723
2450.7249
2452.0764
2453.429
2454.7805
2456.1321
2457.4836
2458.8352
2460.1858
2461.5374
2462.8889
2464.2395
2465.5891
2466.9397
2468.2893
2469.6389
2470.9875
2472.3372
2473.6858
2475.0325
2476.3811
2477.7288
2479.0764
2480.4241
2481.7717
2483.1194
2484.4661
2485.8127
2487.1594
2488.5061
2489.8518
2491.1965
2492.5413
2493.887
2495.2327
2496.5774
2497.9221
2499.2649
2500.6096
2501.9534
2503.2971
2504.6409
2505.9827
2507.3264
2508.6692
2510.012
2511.3547
2512.6956
2514.0374
2515.3792
2516.719
2518.0608
2519.4016
2520.7424
2522.0823
2523.4221
2524.7629
2526.1018
2527.4417
2528.7805
2530.1184
2531.4583
2532.7952
2534.134
2535.4729
2536.8098
2538.1477
2539.4856
2540.8215
2542.1594
2543.4944
2544.8323
2546.1672
2547.5032
2548.8381
2550.175
2551.509
2552.845
2554.179
2555.5139
2556.8469
2558.1819
2559.5149
2560.8499
2562.1819
2563.5159
2564.8479
2566.1819
2567.5129
2568.845
2570.178
2571.509
2572.8411
2574.1721
2575.5022
2576.8342
2578.1643
2579.4934
2580.8245
2582.1536
2583.4827
2584.8137
2586.1418
2587.4709
2588.8
2590.1282
2591.4563
2592.7834
2594.1125
2595.4397
2596.7668
2598.093
2599.4211
2600.7473
2602.0735
2603.3997
2604.7268
2606.052
2607.3772
2608.7024
2610.0266
2611.3518
2612.677
2614.0012
2615.3254
2616.6487
2617.9719
2619.2952
2620.6184
2621.9417
2623.2639
2624.5881
2625.9104
2627.2317
2628.554
2629.8752
2631.1965
2632.5168
2633.8381
2635.1584
2636.4788
2637.7991
2639.1194
2640.4387
2641.759
2643.0784
2644.3967
2645.7161
2647.0344
2648.3528
2649.6711
2650.9895
2652.3059
2653.6233
2654.9407
2656.2581
2657.5745
2658.8909
2660.2083
2661.5247
2662.8391
2664.1545
2665.47
2666.7854
2668.1008
2669.4163
2670.7288
2672.0442
2673.3577
2674.6721
2675.9866
2677.2981
2678.6116
2679.925
2681.2385
2682.55
2683.8625
2685.175
2686.4856
2687.7971
2689.1096
2690.4192
2691.7307
2693.0413
2694.3508
2695.6614
2696.9719
2698.2815
2699.5911
2700.9006
2702.2092
2703.5188
2704.8264
2706.135
2707.4446
2708.7512
2710.0598
2711.3665
2712.6741
2713.9807
2715.2883
2716.595
2717.9006
2719.2073
2720.5129
2721.8196
2723.1243
2724.4299
2725.7346
2727.0383
2728.344
2729.6477
2730.9524
2732.2561
2733.5598
2734.8625
2736.1653
2737.47
2738.7717
2740.0754
2741.3772
2742.678
2743.9817
2745.2825
2746.5833
2747.886
2749.1858
2750.4866
2751.7883
2753.0881
2754.387
2755.6887
2756.9875
2758.2864
2759.5852
2760.885
2762.1838
2763.4817
2764.7795
2766.0793
2767.3762
2768.6741
2769.9709
2771.2678
2772.5667
2773.8625
2775.1594
2776.4553
2777.7512
2779.0461
2780.343
2781.6389
2782.9338
2784.2288
2785.5227
2786.8176
2788.1116
2789.4055
2790.6995
2791.9924
2793.2874
2794.5803
2795.8733
2797.1663
2798.4592
2799.7512
2801.0432
2802.3352
2803.6272
2804.9182
2806.2092
2807.5002
2808.7913
2810.0823
2811.3723
2812.6614
2813.9504
2815.2405
2816.5305
2817.8196
2819.1086
2820.3977
2821.6868
2822.9749
2824.2629
2825.55
2826.8381
2828.1252
2829.4133
2830.7004
2831.9875
2833.2727
2834.5588
2835.8459
2837.1321
2838.4182
2839.7024
2840.9875
2842.2737
2843.5588
2844.842
2846.1272
2847.4114
2848.6956
2849.9788
2851.262
2852.5461
2853.8284
2855.1116
2856.3948
2857.676
2858.9583
2860.2415
2861.5217
2862.804
2864.0862
2865.3665
2866.6477
2867.927
2869.2083
2870.4895
2871.7688
2873.0491
2874.3274
2875.6077
2876.886
2878.1653
2879.4436
2880.7229
2882.0002
2883.2786
2884.5559
2885.8342
2887.1106
2888.3889
2889.6653
2890.9426
2892.219
2893.4963
2894.7717
2896.0461
2897.3235
2898.5979
2899.8743
2901.1487
2902.4221
2903.6985
2904.9719
2906.2473
2907.5208
2908.7932
2910.0676
2911.3411
2912.6135
2913.887
2915.1594
2916.4319
2917.7034
2918.9758
2920.2473
2921.5188
2922.7913
2924.0618
2925.3323
2926.6028
2927.8733
2929.1448
2930.4143
2931.6838
2932.9524
2934.2219
2935.4924
2936.761
2938.0295
2939.2981
2940.5657
2941.8342
2943.1028
2944.3704
2945.6379
2946.9045
2948.1721
2949.4387
2950.7053
2951.9709
2953.2375
2954.5032
2955.7688
2957.0344
2958.2991
2959.5657
2960.8303
2962.095
2963.3596
2964.6243
2965.8879
2967.1506
2968.4143
2969.678
2970.9407
2972.2034
2973.467
2974.7288
2975.9915
2977.2542
2978.5159
2979.7776
2981.0393
2982.301
2983.5608
2984.8215
2986.0823
2987.343
2988.6028
2989.8635
2991.1233
2992.3821
2993.6418
2994.9006
2996.1604
2997.4192
2998.676
2999.9348
3001.1936
3002.4514
3003.7083
3004.9661
3006.2229
3007.4807
3008.7366
3009.9934
3011.2502
3012.5051
3013.762
3015.0178
3016.2727
3017.5286
3018.7834
3020.0374
3021.2932
3022.5481
3023.801
3025.0559
3026.3088
3027.5627
3028.8167
3030.0696
3031.3225
3032.5745
3033.8274
3035.0793
3036.3323
3037.5842
3038.8352
3040.0881
3041.3381
3042.5901
3043.8401
3045.092
3046.3411
3047.592
3048.842
3050.0911
3051.3411
3052.5901
3053.8401
3055.0881
3056.3381
3057.5862
3058.8333
3060.0823
3061.3303
3062.5784
3063.8254
3065.0725
3066.3206
3067.5667
3068.8127
3070.0598
3071.3059
3072.551
3073.7981
3075.0432
3076.2883
3077.5334
3078.7795
3080.0237
3081.2678
3082.512
3083.7571
3085.0002
3086.2434
3087.4866
3088.7297
3089.9739
3091.217
3092.4592
3093.7014
3094.9436
3096.1868
3097.428
3098.6702
3099.9114
3101.1516
3102.3928
3103.6331
3104.8743
3106.1155
3107.3557
3108.5959
3109.8352
3111.0745
3112.3137
3113.553
3114.7913
3116.0305
3117.2688
3118.5071
3119.7454
3120.9827
3122.2209
3123.4583
3124.6956
3125.9329
3127.1692
3128.4065
3129.6428
3130.8792
3132.1155
3133.3508
3134.5852
3135.8206
3137.0559
3138.2913
3139.5266
3140.761
3141.9954
3143.2297
3144.4631
3145.6965
3146.9309
3148.1643
3149.3977
3150.6311
3151.8625
3153.095
3154.3274
3155.5598
3156.7903
3158.0227
3159.2542
3160.4866
3161.7161
3162.9475
3164.179
3165.4094
3166.6389
3167.8694
3169.0989
3170.3284
3171.5579
3172.7874
3174.0159
3175.2454
3176.4739
3177.7014
3178.9299
3180.1584
3181.386
3182.6135
3183.8401
3185.0676
3186.2942
3187.5217
3188.7483
3189.9739
3191.2014
3192.426
3193.6526
3194.8772
3196.1038
3197.3274
3198.553
3199.7776
3201.0022
3202.2258
3203.4514
3204.6741
3205.8987
3207.1213
3208.344
3209.5686
3210.7903
3212.0139
3213.2356
3214.4573
3215.6809
3216.9016
3218.1243
3219.345
3220.5657
3221.7883
3223.0081
3224.2288
3225.4495
3226.6692
3227.8889
3229.1096
3230.3293
3231.5481
3232.7668
3233.9875
3235.2053
3236.4241
3237.6418
3238.8616
3240.0784
3241.2961
3242.5139
3243.7307
3244.9495
3246.1653
3247.3821
3248.5989
3249.8147
3251.0305
3252.2483
3253.4631
3254.679
3255.8938
3257.1086
3258.3235
3259.5383
3260.7532
3261.967
3263.1829
3264.3967
3265.6096
3266.8235
3268.0364
3269.2502
3270.4631
3271.675
3272.8879
3274.0999
3275.3127
3276.5247
3277.7366
3278.9475
3280.1594
3281.3704
3282.5813
3283.7922
3285.0012
3286.2122
3287.4221
3288.6321
3289.842
3291.052
3292.261
3293.4709
3294.6799
3295.887
3297.0959
3298.304
3299.5129
3300.7209
3301.929
3303.135
3304.343
3305.55
3306.7571
3307.9641
3309.1702
3310.3762
3311.5833
3312.7893
3313.9944
3315.2004
3316.4055
3317.6096
3318.8147
3320.0208
3321.2249
3322.429
3323.6331
3324.8372
3326.0403
3327.2444
3328.4465
3329.6506
3330.8538
3332.0559
3333.259
3334.4622
3335.6633
3336.8655
3338.0667
3339.2688
3340.469
3341.6711
3342.8713
3344.0725
3345.2737
3346.4739
3347.6741
3348.8733
3350.0745
3351.2727
3352.4729
3353.6711
3354.8694
3356.0696
3357.2668
3358.4661
3359.6643
3360.8625
3362.0598
3363.2571
3364.4553
3365.6516
3366.8499
3368.0461
3369.2424
3370.4397
3371.635
3372.8303
3374.0276
3375.2229
3376.4172
3377.6135
3378.8079
3380.0022
3381.1985
3382.3918
3383.5862
3384.7795
3385.9749
3387.1682
3388.3606
3389.554
3390.7483
3391.9407
3393.1331
3394.3254
3395.5168
3396.7102
3397.9016
3399.093
3400.2844
3401.4758
3402.6663
3403.8577
3405.0491
3406.2395
3407.4299
3408.6194
3409.8098
3410.9993
3412.1887
3413.3782
3414.5667
3415.7561
3416.9446
3418.1331
3419.3215
3420.509
3421.6985
3422.886
3424.0735
3425.26
3426.4475
3427.634
3428.8206
3430.0071
3431.1936
3432.3801
3433.5667
3434.7522
3435.9377
3437.1233
3438.3088
3439.4944
3440.679
3441.8625
3443.0471
3444.2317
3445.4163
3446.5999
3447.7834
3448.968
3450.1497
3451.3333
3452.5159
3453.6995
3454.8821
3456.0637
3457.2454
3458.428
3459.6096
3460.7903
3461.9719
3463.1536
3464.3352
3465.5149
3466.6956
3467.8762
3469.0559
3470.2366
3471.4163
3472.595
3473.7747
3474.9553
3476.1331
3477.3127
3478.4915
3479.6692
3480.8479
3482.0247
3483.2034
3484.3821
3485.5588
3486.7366
3487.9124
3489.0901
3490.2659
3491.4436
3492.6204
3493.7952
3494.9719
3496.1477
3497.3235
3498.4983
3499.6741
3500.8489
3502.0237
3503.1975
3504.3713
3505.5471
3506.72
3507.8948
3509.0676
3510.2424
3511.4143
3512.5872
3513.761
3514.9329
3516.1047
3517.2786
3518.4495
3519.6223
3520.7942
3521.9651
3523.137
3524.3079
3525.4788
3526.6487
3527.8206
3528.9905
3530.1604
3531.3313
3532.5012
3533.6702
3534.8391
3536.009
3537.178
3538.3469
3539.5149
3540.6829
3541.8528
3543.0208
3544.1887
3545.3557
3546.5227
3547.6897
3548.8586
3550.0256
3551.1917
3552.3586
3553.5247
3554.6907
3555.8567
3557.0217
3558.1877
3559.3528
3560.5198
3561.6848
3562.8489
3564.0139
3565.178
3566.343
3567.5071
3568.6702
3569.8342
3570.9983
3572.1614
3573.3245
3574.4875
3575.6506
3576.8127
3577.9758
3579.136
3580.2981
3581.4602
3582.6223
3583.7834
3584.9456
3586.1067
3587.2678
3588.428
3589.5891
3590.7483
3591.9084
3593.0686
3594.2288
3595.3889
3596.5481
3597.7063
3598.8655
3600.0247
3601.1838
3602.3411
3603.4993
3604.6584
3605.8167
3606.9729
3608.1311
3609.2883
3610.4465
3611.6018
3612.759
3613.9163
3615.0715
3616.2278
3617.385
3618.5393
3619.6956
3620.8518
3622.0061
3623.1614
3624.3167
3625.4709
3626.6262
3627.7795
3628.9338
3630.0891
3631.2415
3632.3958
3633.5481
3634.7024
3635.8547
3637.0081
3638.1594
3639.3127
3640.4641
3641.6174
3642.7688
3643.9211
3645.0715
3646.2239
3647.3743
3648.5256
3649.676
3650.8274
3651.9778
3653.1282
3654.2776
3655.427
3656.5774
3657.7268
3658.8752
3660.0256
3661.1741
3662.3235
3663.4719
3664.6194
3665.7688
3666.9163
3668.0637
3669.2122
3670.3586
3671.5061
3672.6526
3673.8
3674.9465
3676.093
3677.2385
3678.386
3679.5315
3680.677
3681.8225
3682.969
3684.1135
3685.2581
3686.4026
3687.5471
3688.6926
3689.8372
3690.9807
3692.1243
3693.2678
3694.4114
3695.5549
3696.6975
3697.842
3698.9846
3700.1272
3701.2698
3702.4114
3703.554
3704.6956
3705.8372
3706.9788
3708.1204
3709.261
3710.4016
3711.5432
3712.6829
3713.8235
3714.9641
3716.1038
3717.2444
3718.384
3719.5237
3720.6624
3721.802
3722.9407
3724.0803
3725.219
3726.3567
3727.4944
3728.6321
3729.7708
3730.9084
3732.0461
3733.1829
3734.3206
3735.4563
3736.593
3737.7297
3738.8665
3740.0032
3741.1399
3742.2747
3743.4104
3744.5461
3745.6819
3746.8157
3747.9514
3749.0862
3750.2209
3751.3547
3752.4885
3753.6233
3754.7561
3755.8899
3757.0247
3758.1584
3759.2903
3760.4231
3761.5569
3762.6887
3763.8215
3764.9524
3766.0852
3767.218
3768.3479
3769.4807
3770.6106
3771.7424
3772.8743
3774.0042
3775.135
3776.2649
3777.3958
3778.5247
3779.6555
3780.7844
3781.9143
3783.0432
3784.1731
3785.301
3786.4309
3787.5588
3788.6877
3789.8157
3790.9436
3792.0715
3793.1985
3794.3264
3795.4534
3796.5813
3797.7073
3798.8342
3799.9612
3801.0872
3802.2141
3803.3401
3804.4651
3805.592
3806.717
3807.842
3808.968
3810.092
3811.217
3812.3411
3813.4661
3814.5901
3815.7141
3816.8391
3817.9622
3819.0852
3820.2083
3821.3313
3822.4553
3823.5774
3824.7004
3825.8225
3826.9446
3828.0676
3829.1897
3830.3108
3831.4319
3832.553
3833.6741
3834.7961
3835.9172
3837.0374
3838.1584
3839.2786
3840.3977
3841.5178
3842.6379
3843.7571
3844.8762
3845.9954
3847.1145
3848.2336
3849.3518
3850.4709
3851.5891
3852.7073
3853.8254
3854.9426
3856.0608
3857.178
3858.2952
3859.4124
3860.5295
3861.6458
3862.7629
3863.8792
3864.9954
3866.1116
3867.2278
3868.344
3869.4583
3870.5735
3871.6887
3872.804
3873.9192
3875.0334
3876.1467
3877.261
3878.3752
3879.4895
3880.6038
3881.7161
3882.8293
3883.9436
3885.0569
3886.1702
3887.2815
3888.3938
3889.5071
3890.6184
3891.7307
3892.842
3893.9543
3895.0647
3896.177
3897.2883
3898.3977
3899.509
3900.6204
3901.7297
3902.8401
3903.9495
3905.0598
3906.1702
3907.2786
3908.3879
3909.4963
3910.6057
3911.7151
3912.8235
3913.9319
3915.0393
3916.1487
3917.2551
3918.3635
3919.4709
3920.5784
3921.6848
3922.7932
3923.8987
3925.0061
3926.1125
3927.219
3928.3245
3929.4319
3930.5364
3931.6418
3932.7483
3933.8528
3934.9583
3936.0627
3937.1672
3938.2727
3939.3762
3940.4817
3941.5852
3942.6887
3943.7932
3944.8958
3945.9983
3947.1018
3948.2053
3949.3079
3950.4104
3951.5129
3952.6155
3953.717
3954.8186
3955.9211
3957.0227
3958.1233
3959.2249
3960.3264
3961.427
3962.5276
3963.6282
3964.7278
3965.8284
3966.929
3968.0286
3969.1282
3970.2278
3971.3264
3972.425
3973.5247
3974.6243
3975.7229
3976.8206
3977.9192
3979.0168
3980.1145
3981.2122
3982.3098
3983.4075
3984.5042
3985.6018
3986.6985
3987.7952
3988.8918
3989.9875
3991.0842
3992.1799
3993.2756
3994.3713
3995.467
3996.5627
3997.6575
3998.7532
3999.8479
4000.9426
4002.0354
4003.1301
4004.2249
4005.3186
4006.4124
4007.5061
4008.5999
4009.6936
4010.7854
4011.8782
4012.9709
4014.0637
4015.1565
4016.2483
4017.3401
4018.4319
4019.5247
4020.6165
4021.7063
4022.7981
4023.8889
4024.9807
4026.0706
4027.1614
4028.2512
4029.3411
4030.4309
4031.5217
4032.6106
4033.7004
4034.7893
4035.8782
4036.967
4038.0569
4039.1448
4040.2336
4041.3206
4042.4094
4043.4983
4044.5852
4045.6731
4046.759
4047.8469
4048.9348
4050.0208
4051.1086
4052.1946
4053.2815
4054.3665
4055.4534
4056.5383
4057.6252
4058.7102
4059.7961
4060.8801
4061.9661
4063.05
4064.134
4065.22
4066.303
4067.3879
4068.4719
4069.5549
4070.6399
4071.7229
4072.8069
4073.8889
4074.9719
4076.0549
4077.1379
4078.219
4079.303
4080.384
4081.4661
4082.5481
4083.6301
4084.7112
4085.7913
4086.8733
4087.9543
4089.0344
4090.1145
4091.1965
4092.2766
4093.3557
4094.4358
4095.5168
4096.5957
4097.6748
4098.7539
4099.832
4100.9111
4101.9912
4103.0693
4104.1475
4105.2256
4106.3037
4107.3809
4108.459
4109.5361
4110.6133
4111.6914
4112.7686
4113.8457
4114.9219
4115.998
4117.0742
4118.1504
4119.2266
4120.3027
4121.3779
4122.4541
4123.5293
4124.6045
4125.6797
4126.7539
4127.8291
4128.9033
4129.9775
4131.0518
4132.126
4133.1992
4134.2725
4135.3457
4136.4199
4137.4932
4138.5664
4139.6387
4140.7119
4141.7832
4142.8555
4143.9277
4145
4146.0723
4147.1445
4148.2148
4149.2861
4150.3574
4151.4287
4152.5
4153.5693
4154.6406
4155.7109
4156.7812
4157.8506
4158.9209
4159.9902
4161.0596
4162.1289
4163.1982
4164.2666
4165.3359
4166.4053
4167.4727
4168.541
4169.6094
4170.6768
4171.7451
4172.8135
4173.8799
4174.9482
4176.0146
4177.082
4178.1494
4179.2148
4180.2822
4181.3477
4182.4141
4183.4795
4184.5459
4185.6113
4186.6768
4187.7412
4188.8076
4189.8721
4190.9375
4192.001
4193.0664
4194.1299
4195.1953
4196.2588
4197.3232
4198.3857
4199.4492
4200.5127
4201.5762
4202.6396
4203.7021
4204.7637
4205.8271
4206.8896
4207.9512
4209.0137
4210.0752
4211.1367
4212.1982
4213.2598
4214.3203
4215.3828
4216.4424
4217.5029
