# corrn_curve_cubic
0.725495210
0.727540137
0.729582094
0.731615475
0.733645881
0.735667591
0.737683696
0.739693911
0.741698530
0.743697415
0.745687686
0.747674980
0.749653832
0.751629843
0.753597296
0.755559061
0.757515142
0.759465547
0.761407603
0.763346675
0.765277285
0.767205046
0.769121727
0.771035569
0.772943646
0.774846241
0.776743220
0.778631845
0.780517479
0.782394923
0.784266788
0.786133079
0.787993800
0.789848958
0.791696005
0.793540058
0.795375892
0.797206199
0.799033638
0.800853029
0.802666776
0.804472517
0.806275393
0.808072641
0.809861921
0.811645730
0.813424072
0.815199535
0.816964377
0.818726349
0.820482875
0.822231410
0.823977067
0.825714884
0.827447165
0.829174039
0.830895639
0.832611718
0.834322532
0.836027835
0.837722923
0.839417610
0.841104462
0.842785964
0.844464447
0.846132816
0.847798297
0.849456024
0.851110859
0.852758084
0.854399889
0.856036400
0.857667740
0.859293676
0.860914332
0.862527469
0.864137706
0.865740213
0.867337592
0.868929732
0.870518844
0.872098310
0.873674643
0.875245873
0.876811886
0.878370404
0.879921567
0.881471987
0.883014949
0.884552736
0.886085464
0.887610786
0.889133084
0.890648112
0.892157893
0.893663759
0.895163389
0.896656801
0.898147183
0.899629285
0.901107381
0.902579301
0.904048297
0.905510050
0.906966839
0.908419521
0.909865006
0.911305547
0.912739880
0.914170338
0.915596705
0.917016048
0.918430268
0.919838541
0.921242847
0.922642149
0.924035425
0.925423611
0.926806001
0.928183318
0.929555671
0.930925081
0.932286506
0.933643989
0.934995629
0.936341242
0.937683023
0.939018794
0.940349752
0.941675704
0.942996853
0.944312131
0.945623493
0.946929869
0.948230498
0.949525299
0.950816194
0.952101278
0.953381512
0.954655958
0.955926604
0.957191386
0.958449573
0.959704720
0.960954220
0.962198827
0.963438728
0.964673745
0.965904067
0.967128697
0.968348466
0.969563560
0.970773892
0.971978574
0.973177620
0.974372023
0.975562491
0.976748228
0.977928363
0.979103785
0.980272846
0.981438861
0.982599400
0.983755164
0.984906331
0.986051115
0.987192850
0.988329156
0.989460804
0.990587715
0.991708477
0.992825356
0.993937603
0.995043575
0.996146578
0.997244147
0.998337110
0.999424742
1.000507703
1.001586881
1.002659953
1.003729251
1.004793105
1.005851689
1.006907297
1.007955998
1.009001648
1.010042835
1.011077939
1.012109295
1.013136129
1.014156923
1.015174738
1.016185854
1.017194670
1.018196741
1.019195161
1.020188289
1.021178432
1.022161969
1.023142524
1.024117165
1.025088020
1.026053063
1.027015122
1.027971318
1.028924526
1.029871185
1.030814859
1.031752721
1.032687595
1.033615984
1.034540762
1.035461787
1.036377063
1.037288733
1.038195294
1.039096897
1.039995441
1.040888366
1.041776295
1.042661232
1.043540524
1.044415506
1.045287425
1.046153147
1.047015227
1.047873017
1.048725944
1.049574532
1.050418216
1.051258902
1.052094128
1.052925041
1.053751149
1.054574197
1.055391833
1.056205244
1.057014432
1.057819949
1.058620104
1.059416057
1.060207814
1.060994785
1.061778165
1.062557362
1.063331796
1.064102063
1.064867648
1.065629022
1.066386306
1.067139389
1.067888389
1.068632638
1.069373879
1.070109935
1.070841323
1.071569156
1.072292283
1.073011370
1.073725827
1.074436740
1.075143038
1.075845318
1.076543479
1.077237577
1.077927097
1.078613089
1.079294569
1.079971447
1.080644858
1.081313683
1.081978541
1.082639334
1.083296168
1.083948009
1.084596352
1.085240706
1.085881073
1.086516978
1.087148912
1.087777355
1.088401358
1.089020464
1.089636096
1.090247833
1.090855584
1.091459403
1.092059337
1.092653992
1.093246045
1.093833336
1.094417125
1.094997058
1.095571783
1.096143502
1.096711295
1.097275254
1.097834490
1.098390290
1.098942233
1.099489531
1.100033362
1.100573764
1.101109144
1.101641473
1.102169615
1.102693502
1.103214019
1.103730689
1.104243206
1.104751929
1.105256826
1.105757596
1.106254970
1.106747818
1.107237280
1.107723350
1.108204558
1.108682753
1.109156514
1.109626866
1.110093129
1.110556021
1.111014875
1.111469632
1.111921063
1.112368413
1.112812440
1.113252098
1.113688374
1.114120671
1.114548967
1.114974249
1.115395219
1.115812853
1.116226515
1.116636532
1.117042597
1.117445061
1.117844477
1.118239353
1.118631215
1.119018895
1.119402675
1.119783705
1.120160292
1.120533294
1.120903250
1.121268807
1.121631073
1.121990017
1.122344876
1.122695938
1.123044199
1.123388140
1.123728570
1.124065442
1.124399042
1.124728859
1.125054933
1.125377472
1.125696994
1.126012304
1.126324361
1.126632665
1.126937509
1.127239337
1.127536971
1.127831388
1.128122117
1.128409389
1.128692991
1.128973580
1.129250508
1.129523787
1.129793656
1.130059874
1.130322878
1.130582286
1.130838266
1.131090861
1.131339847
1.131585839
1.131828044
1.132066886
1.132302351
1.132534424
1.132762972
1.132988159
1.133209991
1.133428472
1.133643441
1.133855073
1.134063371
1.134268356
1.134470000
1.134668171
1.134862897
1.135054305
1.135242574
1.135427530
1.135609066
1.135787303
1.135962272
1.136133964
1.136302254
1.136467267
1.136628909
1.136787423
1.136942566
1.137094584
1.137243245
1.137388672
1.137530663
1.137669533
1.137805292
1.137937743
1.138066975
1.138192820
1.138315560
1.138435210
1.138551571
1.138664585
1.138774599
1.138881357
1.138984950
1.139085305
1.139182509
1.139276630
1.139367477
1.139455250
1.139539888
1.139621270
1.139699601
1.139774865
1.139846845
1.139915836
1.139981715
1.140044403
1.140104043
1.140160513
1.140213990
1.140264382
1.140311630
1.140355848
1.140396942
1.140435042
1.140470036
1.140502011
1.140530923
1.140556820
1.140579650
1.140599475
1.140616266
1.140630054
1.140640815
1.140648586
1.140653347
1.140655117
1.140653896
1.140649688
1.140642510
1.140632369
1.140619233
1.140603166
1.140584112
1.140562137
1.140537236
1.140509329
1.140478551
1.140444789
1.140408150
1.140368625
1.140326118
1.140280728
1.140232471
1.140181268
1.140127212
1.140070260
1.140010467
1.139947749
1.139882199
1.139813776
1.139742429
1.139668332
1.139591380
1.139511577
1.139428926
1.139343364
1.139255099
1.139164004
1.139070150
1.138973407
1.138873767
1.138771462
1.138666359
1.138558446
1.138447822
1.138334326
1.138218031
1.138099044
1.137977289
1.137852849
1.137725542
1.137595572
1.137462845
1.137327471
1.137189242
1.137048367
1.136904766
1.136758432
1.136609474
1.136457565
1.136303176
1.136146061
1.135986249
1.135823718
1.135658630
1.135490969
1.135320487
1.135147318
1.134971608
1.134793224
1.134612040
1.134428451
1.134242069
1.134053030
1.133861489
1.133667303
1.133470474
1.133271008
1.133069213
1.132864650
1.132657448
1.132447644
1.132235379
1.132020352
1.131802876
1.131582977
1.131360327
1.131135248
1.130907405
1.130677162
1.130444717
1.130209332
1.129971380
1.129731058
1.129488354
1.129242926
1.128995149
1.128744632
1.128491960
1.128236576
1.127978663
1.127718623
1.127455649
1.127190392
1.126922820
1.126652531
1.126379981
1.126105114
1.125827361
1.125547322
1.125265253
1.124980258
1.124693250
1.124403547
1.124111359
1.123816972
1.123520135
1.123221067
1.122919342
1.122615421
1.122308800
1.122000019
1.121689040
1.121375166
1.121059608
1.120741135
1.120420767
1.120097511
1.119772585
1.119444799
1.119114864
1.118782787
1.118448093
1.118111297
1.117771861
1.117430608
1.117086448
1.116740457
1.116392399
1.116041465
1.115688471
1.115333113
1.114975739
1.114616012
1.114253672
1.113889597
1.113523242
1.113154255
1.112783261
1.112410269
1.112034381
1.111656808
1.111276951
1.110894814
1.110510092
1.110123686
1.109735047
1.109344115
1.108950641
1.108555547
1.108158176
1.107758562
1.107356741
1.106952328
1.106546041
1.106137823
1.105727385
1.105314731
1.104899529
1.104482789
1.104063509
1.103642367
1.103219374
1.102793850
1.102366451
1.101936560
1.101504490
1.101070595
1.100634532
1.100196624
1.099756559
1.099314376
1.098870007
1.098423854
1.097975235
1.097524805
1.097072244
1.096617556
1.096161113
1.095702219
1.095241507
1.094778723
1.094313833
1.093847219
1.093378130
1.092907329
1.092434401
1.091959428
1.091482761
1.091004371
1.090523525
1.090040651
1.089555676
1.089068683
1.088579991
1.088089252
1.087596508
1.087102086
1.086605630
1.086106740
1.085606226
1.085103690
1.084599135
1.084093388
1.083585182
1.083075012
1.082562841
1.082049468
1.081533309
1.081015540
1.080495407
1.079974522
1.079450859
1.078925180
1.078398005
1.077869256
1.077338120
1.076805464
1.076270859
1.075734311
1.075195822
1.074655837
1.074113480
1.073569636
1.073024316
1.072476632
1.071927033
1.071375927
1.070822961
1.070268501
1.069711737
1.069153489
1.068592942
1.068030921
1.067467479
1.066901286
1.066334561
1.065765043
1.065194591
1.064621347
1.064047653
1.063471170
1.062893312
1.062313611
1.061732548
1.061148698
1.060564403
1.059977373
1.059389482
1.058799729
1.058207244
1.057614355
1.057018739
1.056422249
1.055823964
1.055222955
1.054621585
1.054017444
1.053412514
1.052805810
1.052196388
1.051586597
1.050974594
1.050360832
1.049745820
1.049129059
1.048510045
1.047889795
1.047268267
1.046645058
1.046019094
1.045392893
1.044764456
1.044134872
1.043502486
1.042869948
1.042235239
1.041598777
1.040961142
1.040320764
1.039680275
1.039037576
1.038393197
1.037747673
1.037100478
1.036450547
1.035800555
1.035148314
1.034495009
1.033840053
1.033183397
1.032525151
1.031865212
1.031204235
1.030540481
1.029876245
1.029210881
1.028543349
1.027874752
1.027204048
1.026532233
1.025859372
1.025184356
1.024508247
1.023830100
1.023150812
1.022469998
1.021788168
1.021104200
1.020419169
1.019732627
1.019044523
1.018355943
1.017664668
1.016972471
1.016278670
1.015583383
1.014886499
1.014188657
1.013488763
1.012787862
1.012086543
1.011382659
1.010677727
1.009970816
1.009262923
1.008553468
1.007843749
1.007131358
1.006418066
1.005703227
1.004986963
1.004269754
1.003551131
1.002830379
1.002108815
1.001386327
1.000661839
0.999936437
0.999210186
0.998481885
0.997751532
0.997020951
0.996288934
0.995555484
0.994820606
0.994084915
0.993347190
0.992609277
0.991868721
0.991127309
0.990385171
0.989641013
0.988895394
0.988149684
0.987401902
0.986653357
0.985902868
0.985152189
0.984398947
0.983645525
0.982890109
0.982133328
0.981375819
0.980616955
0.979857373
0.979095174
0.978333538
0.977569289
0.976804980
0.976039276
0.975271028
0.974503377
0.973733059
0.972962129
0.972189886
0.971416915
0.970642639
0.969866478
0.969090251
0.968311431
0.967532686
0.966752590
0.965970557
0.965188554
0.964405277
0.963619415
0.962833599
0.962047178
0.961258180
0.960469178
0.959678991
0.958886230
0.958094213
0.957300224
0.956505731
0.955708603
0.954911646
0.954114065
0.953314593
0.952513297
0.951712061
0.950909615
0.950106028
0.949301846
0.948495111
0.947688533
0.946880762
0.946071802
0.945261657
0.944450944
0.943638438
0.942824758
0.942010589
0.941195254
0.940379373
0.939561714
0.938743518
0.937924239
0.937103743
0.936282792
0.935460078
0.934636850
0.933812488
0.932987065
0.932161142
0.931332703
0.930504537
0.929675257
0.928845564
0.928014063
0.927182159
0.926349085
0.925514983
0.924679788
0.923843502
0.923006059
0.922168309
0.921329481
0.920489506
0.919648530
0.918806414
0.917963943
0.917121196
0.916276608
0.915430965
0.914584272
0.913737247
0.912889251
0.912039426
0.911190647
0.910339471
0.909487986
0.908634755
0.907781222
0.906927395
0.906072481
0.905215905
0.904359046
0.903501837
0.902642975
0.901783043
0.900922189
0.900061732
0.899199559
0.898336477
0.897473075
0.896607964
0.895742615
0.894877032
0.894009751
0.893140844
0.892273042
0.891402959
0.890532516
0.889661938
0.888789678
0.887917885
0.887043747
0.886168675
0.885294159
0.884417900
0.883542207
0.882664180
0.881786654
0.880906798
0.880026705
0.879147203
0.878265378
0.877383329
0.876500385
0.875617301
0.874732578
0.873847723
0.872961988
0.872076130
0.871189399
0.870300286
0.869412500
0.868522412
0.867632980
0.866741173
0.865850716
0.864958650
0.864065053
0.863172060
0.862278305
0.861382111
0.860487376
0.859590359
0.858693205
0.857795995
0.856897200
0.855998356
0.855098701
0.854199007
0.853296969
0.852395669
0.851493571
0.850589906
0.849686221
0.848782444
0.847877961
0.846971922
0.846065802
0.845158986
0.844252097
0.843344441
0.842434543
0.841525362
0.840615500
0.839705587
0.838794923
0.837883513
0.836969873
0.836056977
0.835144048
0.834229759
0.833315366
0.832400324
0.831484559
0.830568859
0.829651656
0.828734447
0.827815030
0.826896481
0.825977939
0.825057986
0.824138046
0.823216701
0.822295377
0.821374157
0.820451541
0.819528164
0.818604903
0.817680968
0.816756442
0.815831169
0.814906027
0.813979428
0.813054483
0.812127370
0.811199605
0.810271192
0.809342934
0.808413155
0.807483617
0.806553445
0.805623363
0.804691931
0.803761399
0.802829524
0.801896949
0.800963759
0.800030038
0.799096432
0.798163028
0.797228215
0.796292804
0.795356877
0.794421812
0.793485431
0.792547737
0.791610106
0.790673597
0.789734891
0.788796424
0.787856574
0.786918513
0.785978346
0.785037537
0.784097879
0.783156773
0.782214384
0.781273809
0.780331061
0.779387853
0.778445658
0.777502113
0.776558036
0.775614330
0.774669200
0.773725184
0.772779832
0.771833145
0.770888323
0.769941434
0.768995681
0.768047783
0.767101028
0.766152873
0.765205952
0.764256897
0.763308918
0.762358891
0.761409949
0.760459787
0.759510719
0.758559529
0.757609523
0.756658309
0.755707377
0.754755159
0.753803313
0.752851016
0.751899097
0.750946732
0.749993097
0.749039850
0.748086997
0.747132050
0.746178250
0.745223276
0.744268708
0.743314468
0.742358230
0.741403157
0.740447757
0.739491032
0.738535651
0.737578951
0.736622686
0.735665274
0.734708219
0.733750775
0.732793780
0.731834729
0.730876969
0.729918831
0.728960319
0.728000598
0.727042184
0.726083320
0.725124178
0.724164676
0.723203980
0.722243685
0.721283963
0.720323810
0.719363397
0.718402560
0.717441468
0.716480798
0.715518198
0.714556867
0.713595211
0.712633231
0.711671774
0.710709158
0.709747071
0.708784673
0.707821967
0.706858957
0.705896489
0.704933722
0.703969816
0.703007221
0.702043577
0.701079645
0.700116191
0.699151696
0.698187768
0.697223480
0.696259768
0.695295025
0.694330778
0.693365506
0.692400737
0.691436559
0.690472127
0.689507444
0.688541665
0.687576574
0.686611157
0.685646264
0.684680372
0.683715945
0.682750438
0.681784705
0.680818662
0.679852483
0.678886085
0.677921088
0.676955113
0.675988928
0.675022452
0.674057475
0.673090679
0.672124452
0.671158115
0.670192353
0.669226403
0.668259414
0.667293946
0.666327446
0.665359916
0.664393150
0.663427747
0.662461408
0.661494050
0.660528236
0.659561409
0.658596047
0.657628909
0.656661619
0.655696658
0.654729074
0.653763826
0.652796814
0.651829580
0.650863922
0.649897363
0.648931446
0.647964548
0.646999239
0.646032185
0.645066639
0.644100124
0.643134354
0.642167621
0.641202493
0.640235552
0.639270222
0.638303941
0.637338336
0.636372725
0.635407027
0.634442014
0.633476148
0.632510973
0.631544950
0.630580481
0.629615170
0.628649705
0.627685032
0.626719524
0.625754728
0.624790732
0.623825054
0.622860953
0.621896803
0.620931750
0.619968369
0.619004090
0.618040546
0.617076195
0.616112670
0.615149117
0.614184679
0.613221848
0.612259081
0.611296212
0.610333412
0.609369744
0.608407695
0.607444868
0.606482808
0.605520748
0.604557917
0.603595863
0.602634673
0.601673493
0.600712327
0.599751175
0.598789270
0.597828158
0.596867842
0.595906866
0.594946605
0.593987319
0.593027211
0.592067140
0.591107881
0.590148750
0.589189580
0.588230544
0.587271559
0.586313399
0.585354525
0.584396481
0.583438499
0.582480668
0.581523675
0.580565896
0.579609047
0.578652273
0.577695578
0.576739049
0.575783289
0.574826931
0.573871347
0.572915941
0.571960629
0.571005414
0.570050300
0.569096914
0.568142863
0.567188920
0.566235002
0.565281284
0.564328537
0.563376678
0.562424085
0.561471702
0.560519361
0.559567149
0.558616778
0.557665773
0.556713966
0.555763153
0.554812483
0.553863666
0.552914144
0.551963918
0.551015553
0.550066491
0.549118441
0.548169698
0.547222741
0.546274330
0.545326940
0.544381342
0.543434300
0.542487349
0.541542367
0.540596631
0.539651931
0.538706653
0.537761479
0.536818201
0.535874353
0.534931468
0.533987933
0.533044602
0.532102327
0.531160260
0.530219255
0.529276764
0.528337037
0.527395831
0.526455696
0.525515700
0.524576864
0.523636561
0.522698949
0.521759961
0.520822058
0.519884309
0.518947650
0.518009627
0.517074307
0.516138475
0.515201964
0.514267401
0.513332249
0.512398288
0.511464506
0.510530143
0.509597738
0.508663915
0.507732053
0.506800468
0.505868316
0.504938048
0.504008147
0.503077689
0.502147519
0.501218399
0.500289656
0.499361209
0.498432976
0.497505971
0.496579184
0.495651946
0.494725774
0.493800754
0.492875206
0.491950059
0.491025987
0.490102235
0.489178807
0.488256544
0.487333771
0.486411329
0.485490059
0.484569126
0.483648531
0.482729114
0.481810040
0.480890392
0.479971178
0.479053150
0.478136228
0.477218910
0.476302786
0.475386939
0.474471455
0.473556421
0.472641672
0.471728128
0.470814207
0.469901411
0.468988994
0.468077041
0.467166220
0.466254953
0.465344905
0.464435248
0.463525984
0.462617115
0.461708645
0.460801322
0.459893656
0.458987224
0.458081200
0.457177157
0.456271956
0.455367087
0.454463545
0.453560341
0.452657642
0.451755285
0.450853439
0.449953588
0.449053345
0.448153619
0.447254248
0.446355316
0.445457649
0.444560426
0.443663649
0.442766501
0.441870626
0.440976845
0.440081880
0.439188193
0.438294149
0.437402124
0.436509828
0.435618818
0.434728197
0.433838131
0.432947724
0.432059345
0.431170713
0.430283297
0.429396366
0.428510003
0.427623235
0.426738587
0.425853702
0.424970775
0.424086886
0.423203418
0.422322076
0.421440430
0.420560913
0.419680287
0.418800175
0.417922116
0.417043120
0.416166098
0.415288873
0.414413707
0.413537535
0.412663505
0.411788397
0.410915353
0.410042122
0.409170957
0.408298727
0.407428727
0.406559193
0.405688604
0.404820970
0.403952367
0.403085041
0.402219072
0.401352064
0.400487218
0.399622138
0.398759221
0.397896076
0.397033502
0.396171503
0.395311592
0.394449953
0.393591280
0.392732316
0.391874018
0.391016307
0.390159901
0.389304877
0.388448945
0.387594402
0.386741168
0.385888536
0.385035009
0.384183588
0.383333562
0.382483359
0.381633062
0.380785032
0.379937462
0.379090512
0.378244967
0.377399263
0.376553403
0.375709738
0.374866626
0.374024225
0.373182460
0.372342036
0.371501549
0.370662484
0.369823986
0.368985435
0.368148234
0.367311762
0.366476642
0.365642255
0.364808449
0.363975303
0.363142820
0.362311080
0.361480702
0.360650222
0.359821185
0.358992821
0.358165134
0.357338895
0.356512567
0.355687690
0.354863498
0.354039917
0.353217102
0.352395743
0.351575002
0.350755033
0.349934998
0.349116352
0.348298484
0.347482007
0.346665552
0.345851250
0.345036900
0.344223339
0.343410418
0.342598216
0.341786811
0.340977564
0.340168286
0.339359735
0.338551913
0.337744823
0.336939971
0.336134350
0.335330219
0.334526828
0.333724854
0.332922949
0.332122540
0.331322804
0.330523894
0.329725736
0.328929005
0.328132360
0.327336401
0.326542691
0.325749074
0.324956150
0.324164735
0.323373423
0.322582811
0.321794451
0.321005465
0.320218659
0.319431897
0.318645919
0.317862197
0.317077791
0.316295571
0.315513481
0.314732918
0.313952418
0.313173448
0.312395204
0.311618565
0.310841272
0.310066170
0.309291222
0.308518465
0.307745141
0.306974010
0.306202319
0.305432824
0.304663498
0.303896368
0.303129341
0.302363142
0.301597772
0.300833307
0.300070322
0.299308818
0.298546861
0.297786389
0.297027403
0.296268618
0.295511393
0.294755016
0.293999490
0.293244745
0.292491636
0.291737964
0.290987208
0.290236674
