# corrn_curve_quadratic
1.066310381
1.066767475
1.067223738
1.067677915
1.068131257
1.068582485
1.069032287
1.069480600
1.069927488
1.070372919
1.070816250
1.071258735
1.071699158
1.072138762
1.072576276
1.073012336
1.073446943
1.073880097
1.074311204
1.074741453
1.075169628
1.075596973
1.076021662
1.076445521
1.076867899
1.077288859
1.077708370
1.078125825
1.078542409
1.078956973
1.079370091
1.079781764
1.080191992
1.080600774
1.081007550
1.081413445
1.081817307
1.082219729
1.082621292
1.083020859
1.083418956
1.083815064
1.084210309
1.084604085
1.084995878
1.085386235
1.085775154
1.086163200
1.086548682
1.086933291
1.087316462
1.087697641
1.088077941
1.088456281
1.088833159
1.089208605
1.089582646
1.089955227
1.090326402
1.090696117
1.091063352
1.091430232
1.091795147
1.092158633
1.092521193
1.092881293
1.093240493
1.093597742
1.093954086
1.094308510
1.094661483
1.095013032
1.095363181
1.095711881
1.096059155
1.096404525
1.096748978
1.097091480
1.097432586
1.097772271
1.098111007
1.098447381
1.098782780
1.099116783
1.099449366
1.099780043
1.100108846
1.100437173
1.100763601
1.101088612
1.101412231
1.101733961
1.102054725
1.102373628
1.102691095
1.103007405
1.103322070
1.103635092
1.103947139
1.104257110
1.104565901
1.104873055
1.105179250
1.105483585
1.105786534
1.106088274
1.106388163
1.106686667
1.106983524
1.107279217
1.107573698
1.107866361
1.108157598
1.108447240
1.108735691
1.109022738
1.109308170
1.109592179
1.109874620
1.110155639
1.110435258
1.110713887
1.110990499
1.111265917
1.111539752
1.111811968
1.112083008
1.112352430
1.112620477
1.112887107
1.113152361
1.113416023
1.113678486
1.113939532
1.114199010
1.114456904
1.114713594
1.114968702
1.115222418
1.115474555
1.115725506
1.115974861
1.116222478
1.116469056
1.116714080
1.116957698
1.117199945
1.117440787
1.117680258
1.117918165
1.118154668
1.118389803
1.118623551
1.118855741
1.119086376
1.119315646
1.119543686
1.119770341
1.119995446
1.120219168
1.120441195
1.120662155
1.120881587
1.121099622
1.121316293
1.121531264
1.121745161
1.121957536
1.122168533
1.122378136
1.122586083
1.122792793
1.122998128
1.123201783
1.123404368
1.123605426
1.123805111
1.124003289
1.124200080
1.124395644
1.124589560
1.124782250
1.124973410
1.125163073
1.125351649
1.125538435
1.125724117
1.125908443
1.126091126
1.126272579
1.126452663
1.126631113
1.126808463
1.126984065
1.127158682
1.127331544
1.127503184
1.127673321
1.127842347
1.128009645
1.128175831
1.128340406
1.128503731
1.128665465
1.128826080
1.128985095
1.129142988
1.129299168
1.129454223
1.129607689
1.129760026
1.129910665
1.130060073
1.130208224
1.130354797
1.130500136
1.130644000
1.130786415
1.130927677
1.131067385
1.131205637
1.131342744
1.131478294
1.131612494
1.131745532
1.131876930
1.132007078
1.132135876
1.132263238
1.132389242
1.132513804
1.132637205
1.132759082
1.132879604
1.132998699
1.133116618
1.133233022
1.133348083
1.133461799
1.133574246
1.133685190
1.133794791
1.133903049
1.134009885
1.134115461
1.134219693
1.134322507
1.134423980
1.134524045
1.134622764
1.134720153
1.134816196
1.134910907
1.135004203
1.135096301
1.135186930
1.135276155
1.135364111
1.135450660
1.135535881
1.135619704
1.135702257
1.135783415
1.135863246
1.135941739
1.136018899
1.136094671
1.136169167
1.136242282
1.136314007
1.136384462
1.136453529
1.136521273
1.136587683
1.136652770
1.136716433
1.136778817
1.136839876
1.136899608
1.136957969
1.137015006
1.137070760
1.137125147
1.137178130
1.137229831
1.137280213
1.137329269
1.137377002
1.137423417
1.137468407
1.137512176
1.137554561
1.137595656
1.137635433
1.137673804
1.137710915
1.137746704
1.137781178
1.137814284
1.137846098
1.137876596
1.137905736
1.137933582
1.137960133
1.137985312
1.138009215
1.138031788
1.138053030
1.138072979
1.138091613
1.138108922
1.138124921
1.138139608
1.138152976
1.138165043
1.138175784
1.138185225
1.138193363
1.138200175
1.138205691
1.138209892
1.138212790
1.138214380
1.138214665
1.138213644
1.138211320
1.138207691
1.138202760
1.138196521
1.138188990
1.138180151
1.138170016
1.138158590
1.138145844
1.138131817
1.138116479
1.138099854
1.138081929
1.138062720
1.138042213
1.138020375
1.137997291
1.137972874
1.137947196
1.137920244
1.137891934
1.137862392
1.137831557
1.137799381
1.137765983
1.137731268
1.137695233
1.137657959
1.137619420
1.137579505
1.137538388
1.137495978
1.137452282
1.137407262
1.137360986
1.137313455
1.137264639
1.137214459
1.137163103
1.137110420
1.137056496
1.137001283
1.136944695
1.136886958
1.136827887
1.136767577
1.136705984
1.136643156
1.136578947
1.136513503
1.136446827
1.136378864
1.136309679
1.136239159
1.136167409
1.136094383
1.136020073
1.135944547
1.135867618
1.135789535
1.135710169
1.135629524
1.135547608
1.135464472
1.135380061
1.135294374
1.135207411
1.135119241
1.135029797
1.134939079
1.134847080
1.134753814
1.134659348
1.134563677
1.134466743
1.134368456
1.134268904
1.134168150
1.134066135
1.133962842
1.133858278
1.133752527
1.133645516
1.133537313
1.133427758
1.133317022
1.133204932
1.133091662
1.132977126
1.132861496
1.132744521
1.132626189
1.132506675
1.132385906
1.132264054
1.132140855
1.132016286
1.131890561
1.131763763
1.131635505
1.131506086
1.131375407
1.131243570
1.131110475
1.130976027
1.130840509
1.130703638
1.130565508
1.130426339
1.130285793
1.130143891
1.130001066
1.129856751
1.129711191
1.129564593
1.129416637
1.129267649
1.129117174
1.128965457
1.128812712
1.128658596
1.128503470
1.128346850
1.128189225
1.128030226
1.127870101
1.127708601
1.127546106
1.127382222
1.127217231
1.127050863
1.126883495
1.126714631
1.126544771
1.126373545
1.126201194
1.126027475
1.125852771
1.125676961
1.125499491
1.125321196
1.125141376
1.124960596
1.124778718
1.124595168
1.124410808
1.124224916
1.124038061
1.123850129
1.123660661
1.123470087
1.123278440
1.123085388
1.122891265
1.122695888
1.122499429
1.122301594
1.122102663
1.121902496
1.121700935
1.121498455
1.121294742
1.121089795
1.120883614
1.120676036
1.120467552
1.120257835
1.120047037
1.119834858
1.119621278
1.119406787
1.119191083
1.118974131
1.118756122
1.118536729
1.118316089
1.118094394
1.117871488
1.117647514
1.117422135
1.117195708
1.116968054
1.116739355
1.116509250
1.116278084
1.116045711
1.115812114
1.115577461
1.115341229
1.115104147
1.114865824
1.114626298
1.114385530
1.114143750
1.113900924
1.113656685
1.113411225
1.113164741
1.112917038
1.112667938
1.112417976
1.112166617
1.111914039
1.111660444
1.111405632
1.111149604
1.110892359
1.110634287
1.110374817
1.110114111
1.109852210
1.109589284
1.109324955
1.109059601
1.108793246
1.108525489
1.108256711
1.107986506
1.107715305
1.107443327
1.107169705
1.106894872
1.106619048
1.106342213
1.106063972
1.105784743
1.105504084
1.105222642
1.104939792
1.104655734
1.104370902
1.104084408
1.103796960
1.103508513
1.103218632
1.102927800
1.102635952
1.102342480
1.102048014
1.101752817
1.101455946
1.101158347
1.100859310
1.100559046
1.100257846
1.099955446
1.099652065
1.099347266
1.099041512
1.098734290
1.098426139
1.098117013
1.097806218
1.097494948
1.097181982
1.096868321
1.096552986
1.096237162
1.095919689
1.095601249
1.095281845
1.094961017
1.094639253
1.094316038
1.093992148
1.093666546
1.093340248
1.093013021
1.092684105
1.092354261
1.092023200
1.091691241
1.091358068
1.091023437
1.090688154
1.090351712
1.090013784
1.089674940
1.089335183
1.088993692
1.088651563
1.088308249
1.087963749
1.087617787
1.087271169
1.086923395
1.086574410
1.086223988
1.085872946
1.085520696
1.085167264
1.084812679
1.084456598
1.084099649
1.083741780
1.083382731
1.083022503
1.082660803
1.082298508
1.081934741
1.081570089
1.081204555
1.080837549
1.080469633
1.080100273
1.079729736
1.079358320
1.078985730
1.078612235
1.078237566
1.077861754
1.077484738
1.077106853
1.076727520
1.076347291
1.075965889
1.075583315
1.075199880
1.074814994
1.074429187
1.074042240
1.073654123
1.073265151
1.072874695
1.072483386
1.072090877
1.071697231
1.071302737
1.070907365
1.070510506
1.070112514
1.069713322
1.069312997
1.068911798
1.068509435
1.068105939
1.067701575
1.067296048
1.066889028
1.066481174
1.066072158
1.065661979
1.065251305
1.064839103
1.064425775
1.064011285
1.063596276
1.063179466
1.062761801
1.062342671
1.061923369
1.061502262
1.061079962
1.060656881
1.060232953
1.059807524
1.059381285
1.058953890
1.058525340
1.058095635
1.057665125
1.057233110
1.056800292
1.056366674
1.055931550
1.055495272
1.055058161
1.054619935
1.054180879
1.053740350
1.053298994
1.052856162
1.052412505
1.051968061
1.051521777
1.051075400
1.050627145
1.050178473
1.049727920
1.049277323
1.048824842
1.048371584
1.047917179
1.047462001
1.047004932
1.046547800
1.046088812
1.045629430
1.045168869
1.044706446
1.044243976
1.043779643
1.043314890
1.042848996
1.042381234
1.041913440
1.041443738
1.040973665
1.040502452
1.040029365
1.039556222
1.039081592
1.038605822
1.038129305
1.037651651
1.037172467
1.036692538
1.036211827
1.035730020
1.035246285
1.034762564
1.034277311
1.033791362
1.033303438
1.032815581
1.032326231
1.031835707
1.031344454
1.030851258
1.030358146
1.029863496
1.029367715
1.028871212
1.028373578
1.027873993
1.027374509
1.026873444
1.026371704
1.025868835
1.025364797
1.024859673
1.024353378
1.023846416
1.023337447
1.022828231
1.022318267
1.021806757
1.021294543
1.020780824
1.020266361
1.019751198
1.019234487
1.018717036
1.018198119
1.017678422
1.017157645
1.016636176
1.016113155
1.015589401
1.015064569
1.014538616
1.014012371
1.013484135
1.012955260
1.012425221
1.011894108
1.011361832
1.010828878
1.010294408
1.009759219
1.009223756
1.008686379
1.008148241
1.007608630
1.007068305
1.006526820
1.005985164
1.005441494
1.004897161
1.004351669
1.003805109
1.003257844
1.002709512
1.002159568
1.001609012
1.001057756
1.000504978
0.999951502
0.999397376
0.998841681
0.998284413
0.997726960
0.997168399
0.996608730
0.996047952
0.995486534
0.994923541
0.994360378
0.993795170
0.993229278
0.992662799
0.992094742
0.991525532
0.990956211
0.990385265
0.989813691
0.989240584
0.988667281
0.988091967
0.987516460
0.986939371
0.986361180
0.985782368
0.985202456
0.984621927
0.984039328
0.983457085
0.982872770
0.982288331
0.981702745
0.981115131
0.980527889
0.979938518
0.979348590
0.978757564
0.978165887
0.977573113
0.976978797
0.976384329
0.975787771
0.975191163
0.974593411
0.973994065
0.973394627
0.972794096
0.972191466
0.971588750
0.970985448
0.970380042
0.969774506
0.969167931
0.968559247
0.967951000
0.967341102
0.966730677
0.966118086
0.965505483
0.964892254
0.964277422
0.963661038
0.963044546
0.962426967
0.961808354
0.961189122
0.960567763
0.959946360
0.959323872
0.958700298
0.958075640
0.957450370
0.956823543
0.956195631
0.955567162
0.954937610
0.954307453
0.953675736
0.953043414
0.952410065
0.951775580
0.951140549
0.950503957
0.949866765
0.949228495
0.948589198
0.947949307
0.947307258
0.946665210
0.946022084
0.945378423
0.944733143
0.944087329
0.943440384
0.942792418
0.942143376
0.941493258
0.940842009
0.940190289
0.939537495
0.938883572
0.938228629
0.937572557
0.936915965
0.936258911
0.935600175
0.934940367
0.934279485
0.933618091
0.932955681
0.932291584
0.931628044
0.930962368
0.930296184
0.929628366
0.928960044
0.928291219
0.927621270
0.926949742
0.926277715
0.925605133
0.924930972
0.924255687
0.923579391
0.922903119
0.922225208
0.921546289
0.920866824
0.920185717
0.919504124
0.918822045
0.918138325
0.917453018
0.916768275
0.916081423
0.915393974
0.914706106
0.914016592
0.913327131
0.912635495
0.911942798
0.911250216
0.910555927
0.909861760
0.909165412
0.908469129
0.907770662
0.907071670
0.906372810
0.905671763
0.904970194
0.904267569
0.903564486
0.902859748
0.902154554
0.901448306
0.900741605
0.900033851
0.899323835
0.898614517
0.897902997
0.897191635
0.896478007
0.895765089
0.895050512
0.894334333
0.893618264
0.892901205
0.892181810
0.891463204
0.890742381
0.890021061
0.889299308
0.888575890
0.887852041
0.887127143
0.886401818
0.885674205
0.884946786
0.884218321
0.883488186
0.882757628
0.882026587
0.881294564
0.880560870
0.879826694
0.879091537
0.878355904
0.877619227
0.876880307
0.876141543
0.875401800
0.874661585
0.873920330
0.873178034
0.872433485
0.871689105
0.870944260
0.870197863
0.869450938
0.868703038
0.867954099
0.867204764
0.866453747
0.865702272
0.864948532
0.864195045
0.863441103
0.862685542
0.861929529
0.861171894
0.860413808
0.859655339
0.858895248
0.858134056
0.857372483
0.856609876
0.855846301
0.855081627
0.854316577
0.853549835
0.852783975
0.852015829
0.851246651
0.850476441
0.849705863
0.848933522
0.848160882
0.847387212
0.846613111
0.845837381
0.845061892
0.844284772
0.843506557
0.842727312
0.841947107
0.841166479
0.840385498
0.839602817
0.838819109
0.838034441
0.837249967
0.836463859
0.835676113
0.834887885
0.834100063
0.833309854
0.832519304
0.831727045
0.830935748
0.830142128
0.829347415
0.828553124
0.827757054
0.826959342
0.826162610
0.825363475
0.824563389
0.823763597
0.822962093
0.822159569
0.821356790
0.820552227
0.819748039
0.818942135
0.818134514
0.817327903
0.816518945
0.815710373
0.814899380
0.814088777
0.813276383
0.812464454
0.811650099
0.810836072
0.810019685
0.809203630
0.808385922
0.807568549
0.806748742
0.805929345
0.805108294
0.804286874
0.803463726
0.802640281
0.801815825
0.800991075
0.800165315
0.799337826
0.798510046
0.797681977
0.796851456
0.796021298
0.795189479
0.794357376
0.793524918
0.792690073
0.791855600
0.791020194
0.790182979
0.789346290
0.788507792
0.787669019
0.786828582
0.785987800
0.785146012
0.784303956
0.783459423
0.782615359
0.781770292
0.780924222
0.780076409
0.779229073
0.778380661
0.777531323
0.776680983
0.775828898
0.774976480
0.774123882
0.773270210
0.772415613
0.771559941
0.770703345
0.769846425
0.768987079
0.768128162
0.767268246
0.766407333
0.765546176
0.764683268
0.763820118
0.762955973
0.762090831
0.761224693
0.760358319
0.759490950
0.758621826
0.757753154
0.756882802
0.756011456
0.755139804
0.754266470
0.753392909
0.752518278
0.751643423
0.750766884
0.749890047
0.749011523
0.748132703
0.747253664
0.746373636
0.745492618
0.744609836
0.743726916
0.742842930
0.741958655
0.741072691
0.740187298
0.739300138
0.738411990
0.737522776
0.736632653
0.735741543
0.734850937
0.733958639
0.733065355
0.732171006
0.731277249
0.730381009
0.729484495
0.728587076
0.727689385
0.726790712
0.725890262
0.724990418
0.724088797
0.723185397
0.722281890
0.721378838
0.720474086
0.719567555
0.718661642
0.717753948
0.716846799
0.715937145
0.715026511
0.714117231
0.713204637
0.712293403
0.711379658
0.710464853
0.709550688
0.708634817
0.707718700
0.706800795
0.705883537
0.704963760
0.704044553
0.703123557
0.702202401
0.701279453
0.700357167
0.699432270
0.698508036
0.697582010
0.696655749
0.695728598
0.694800474
0.693872120
0.692942052
0.692011756
0.691079744
0.690148333
0.689215206
0.688281027
0.687346706
0.686410669
0.685474410
0.684538014
0.683599067
0.682660736
0.681721436
0.680780333
0.679839936
0.678897734
0.677955320
0.677011185
0.676066923
0.675121695
0.674174659
0.673228258
0.672280977
0.671332648
0.670383439
0.669432420
0.668482045
0.667529944
0.666577644
0.665624381
0.664669390
0.663714201
0.662758903
0.661802644
0.660845425
0.659887244
0.658927333
0.657967231
0.657006940
0.656045003
0.655082793
0.654120570
0.653156528
0.652191528
0.651226346
0.650260292
0.649293194
0.648325226
0.647356301
0.646387198
0.645416359
0.644445344
0.643473374
0.642500535
0.641527525
0.640552689
0.639577769
0.638601896
0.637625069
0.636647376
0.635669430
0.634689829
0.633709977
0.632729261
0.631747592
0.630764972
0.629781398
0.628798550
0.627813957
0.626828413
0.625841831
0.624854386
0.623866877
0.622879219
0.621889724
0.620899370
0.619907978
0.618915636
0.617924129
0.616930873
0.615935687
0.614940447
0.613944259
0.612948916
0.611951731
0.610952704
0.609954526
0.608954505
0.607954439
0.606952528
0.605951384
0.604947583
0.603943740
0.602940672
0.601934943
0.600928179
0.599922376
0.598914633
0.597906857
0.596897322
0.595886753
0.594877065
0.593865616
0.592854049
0.591840629
0.590826268
0.589811882
0.588796557
0.587781210
0.586763090
0.585746786
0.584727706
0.583708608
0.582688481
0.581668431
0.580645599
0.579624507
0.578600724
0.577576930
0.576552107
0.575527276
0.574499747
0.573473975
0.572446433
0.571416934
0.570388363
0.569357926
0.568327582
0.567296212
0.566262975
0.565230676
0.564195572
0.563161409
0.562126316
0.561089352
0.560053243
0.559016298
0.557977482
0.556937736
0.555897908
0.554857245
0.553815653
0.552773038
0.551730535
0.550687010
0.549641703
0.548596322
0.547550963
0.546503728
0.545455660
0.544407523
0.543358459
0.542308470
0.541258510
0.540206670
0.539153903
0.538101169
0.537047511
0.535992928
0.534938382
0.533882913
0.532825464
0.531767186
0.530708948
0.529650655
0.528590573
0.527530534
0.526469478
0.525407501
0.524344700
0.523280881
0.522217111
0.521151548
0.520085939
0.519019411
0.517952060
0.516884668
0.515815383
0.514746154
0.513676008
0.512604945
0.511532963
0.510460065
0.509387130
0.508312397
0.507237728
0.506162143
0.505087512
0.504010096
0.502931667
0.501853406
0.500774132
0.499694042
0.498612939
0.497531021
0.496450071
0.495367218
0.494283551
0.493198872
0.492113281
0.491027772
0.489941351
0.488854020
0.487764780
0.486675625
0.485587557
0.484496582
0.483405696
0.482312899
0.481221095
0.480127481
0.479033961
0.477939433
0.476844098
0.475746848
0.474650602
0.473552543
0.472454485
0.471355520
0.470255749
0.469153960
0.468053288
0.466950799
0.465849229
0.464744930
0.463639622
0.462535442
0.461429341
0.460324371
0.459216462
0.458107649
0.456999871
0.455889352
0.454779769
0.453668363
0.452558000
0.451444790
0.450332729
0.449217715
0.448103749
0.446987959
0.445873222
0.444755528
0.443639096
0.442521663
0.441401268
0.440283070
0.439162011
0.438040984
0.436920094
0.435796236
0.434673551
0.433548932
0.432425493
0.431300119
0.430173848
0.429046682
0.427920598
0.426790597
0.425662829
0.424533018
0.423402418
0.422270922
0.421139474
0.420008180
0.418874002
0.417739979
0.416606008
0.415471145
0.414333392
0.413196744
0.412060258
0.410921828
0.409781556
0.408642609
0.407502561
0.406361623
0.405220853
0.404078136
0.402933468
0.401790030
0.400645599
0.399500384
0.398354282
0.397208248
0.396060370
0.394912669
0.393763974
0.392613432
0.391462963
0.390311714
0.389160541
0.388008590
0.386855647
0.385701818
0.384547105
0.383391613
0.382236204
0.381078835
0.379921658
0.378763597
0.377604653
0.376445904
0.375285193
0.374124679
0.372963284
0.371800898
0.370637738
0.369474780
0.368310834
0.367146116
0.365979430
0.364812842
0.363645481
0.362478221
0.361309101
0.360141172
0.358971275
0.357800609
0.356628954
0.355456420
0.354283117
0.353111017
0.351936945
0.350761996
0.349586170
0.348409466
0.347234084
0.346055628
0.344877395
0.343698287
0.342519296
0.341338438
0.340157808
0.338976194
0.337793817
0.336610565
0.335427437
0.334242438
0.333056455
0.331871818
0.330685310
0.329497818
0.328310567
0.327121443
0.325931335
0.324742585
0.323550845
0.322360355
0.321167878
0.319974530
0.318782550
0.317587462
0.316393633
0.315197927
0.314002474
0.312805030
0.311607841
0.310409672
0.309211873
0.308010956
0.306811311
0.305609785
0.304409536
0.303206276
0.302004297
0.300799303
0.299595594
0.298390000
0.297185694
0.295979391
0.294772223
0.293564191
0.292355408
0.291146785
0.289938323
0.288726950
0.287515738
0.286304690
0.285091754
0.283879097
0.282665579
0.281451199
0.280235844
0.279020888
0.277802779
0.276587135
0.275369600
