# corrn_curve_quartic
-0.941593439
-0.925704272
-0.909869366
-0.894132022
-0.878448721
-0.862863471
-0.847352201
-0.831916945
-0.816555255
-0.801268037
-0.786077060
-0.770939139
-0.755895723
-0.740904061
-0.726007367
-0.711183667
-0.696432750
-0.681754407
-0.667168505
-0.652634584
-0.638193535
-0.623803197
-0.609524789
-0.595296688
-0.581140535
-0.567054067
-0.553038108
-0.539112657
-0.525238003
-0.511452234
-0.497735951
-0.484088950
-0.470511028
-0.457001983
-0.443580134
-0.430208137
-0.416923709
-0.403707150
-0.390539153
-0.377456875
-0.364442819
-0.351513698
-0.338632544
-0.325818998
-0.313089513
-0.300426113
-0.287828600
-0.275278544
-0.262830444
-0.250429407
-0.238093468
-0.225840282
-0.213633854
-0.201508717
-0.189448593
-0.177452401
-0.165519076
-0.153650168
-0.141843749
-0.130101350
-0.118455093
-0.106837399
-0.095299124
-0.083823060
-0.072393197
-0.061057628
-0.049767045
-0.038554291
-0.027386322
-0.016294813
-0.005264817
0.005704669
0.016614629
0.027463655
0.038252736
0.048967168
0.059637783
0.070232730
0.080769424
0.091247272
0.101680939
0.112027172
0.122328840
0.132573161
0.142759562
0.152873409
0.162915876
0.172929866
0.182872106
0.192757509
0.202586979
0.212345653
0.222061715
0.231708224
0.241298258
0.250840401
0.260320098
0.269737649
0.279113285
0.288414162
0.297667295
0.306859240
0.316010429
0.325094113
0.334124635
0.343107434
0.352023576
0.360887151
0.369690554
0.378448249
0.387159003
0.395805080
0.404398253
0.412933680
0.421423502
0.429861573
0.438241896
0.446570276
0.454842632
0.463063464
0.471233556
0.479365040
0.487428148
0.495447009
0.503410532
0.511317818
0.519181909
0.526990183
0.534749796
0.542459769
0.550121410
0.557728700
0.565293072
0.572808488
0.580270720
0.587679483
0.595045924
0.602359298
0.609625243
0.616838593
0.624010740
0.631130156
0.638192940
0.645219184
0.652194410
0.659122974
0.666006066
0.672842828
0.679634436
0.686375554
0.693070904
0.699721642
0.706327428
0.712883569
0.719390323
0.725853218
0.732276208
0.738655111
0.744985395
0.751271975
0.757506219
0.763705926
0.769858296
0.775967197
0.782033694
0.788048554
0.794029420
0.799963938
0.805856283
0.811706176
0.817506453
0.823268991
0.828990036
0.834661307
0.840299888
0.845893281
0.851445855
0.856954076
0.862421430
0.867852518
0.873235784
0.878583080
0.883886179
0.889146114
0.894374387
0.899551682
0.904697172
0.909804001
0.914864391
0.919889888
0.924876843
0.929818033
0.934728401
0.939590149
0.944424546
0.949210423
0.953962706
0.958673715
0.963354499
0.967988083
0.972591670
0.977151623
0.981678042
0.986161619
0.990615610
0.995026815
0.999408612
1.003744775
1.008051761
1.012316799
1.016552838
1.020744182
1.024903959
1.029031605
1.033118325
1.037173812
1.041191509
1.045172235
1.049124471
1.053037082
1.056912964
1.060760965
1.064569660
1.068344993
1.072092428
1.075798624
1.079474673
1.083117907
1.086726029
1.090301385
1.093841727
1.097355159
1.100831500
1.104275673
1.107685772
1.111069095
1.114416094
1.117731767
1.121016244
1.124271858
1.127491906
1.130681204
1.133839883
1.136965726
1.140063584
1.143131218
1.146166476
1.149171816
1.152145355
1.155089054
1.158003487
1.160888342
1.163744185
1.166568588
1.169368270
1.172135111
1.174871217
1.177580857
1.180259856
1.182910808
1.185531659
1.188126508
1.190691550
1.193229078
1.195738832
1.198221131
1.200674249
1.203102029
1.205501100
1.207871283
1.210216656
1.212533431
1.214823871
1.217087751
1.219325536
1.221533840
1.223717847
1.225875992
1.228008394
1.230113586
1.232193316
1.234249256
1.236278403
1.238279423
1.240257029
1.242209958
1.244138029
1.246041512
1.247920666
1.249771262
1.251601738
1.253405505
1.255186552
1.256943885
1.258673555
1.260382298
1.262067448
1.263729376
1.265365592
1.266979980
1.268571398
1.270137706
1.271682390
1.273205634
1.274703073
1.276180335
1.277634352
1.279065068
1.280474996
1.281862935
1.283228172
1.284571781
1.285893773
1.287193475
1.288472882
1.289729199
1.290965443
1.292181674
1.293374336
1.294548126
1.295699652
1.296831513
1.297942177
1.299033450
1.300103854
1.301153378
1.302183898
1.303193785
1.304184849
1.305154864
1.306106118
1.307037406
1.307948803
1.308842491
1.309715835
1.310570974
1.311406700
1.312223780
1.313021713
1.313801296
1.314563666
1.315306087
1.316031535
1.316737940
1.317425952
1.318097698
1.318750290
1.319385344
1.320003851
1.320603652
1.321186686
1.321752971
1.322301409
1.322832576
1.323348048
1.323845669
1.324326742
1.324791291
1.325239791
1.325671651
1.326087037
1.326486321
1.326870213
1.327237378
1.327589053
1.327924767
1.328244945
1.328550115
1.328839194
1.329113250
1.329371934
1.329615556
1.329844042
1.330057998
1.330257007
1.330441196
1.330610831
1.330765865
1.330906645
1.331033055
1.331145283
1.331243438
1.331327539
1.331397868
1.331454290
1.331497023
1.331526156
1.331541776
1.331543982
1.331532878
1.331508556
1.331471105
1.331420658
1.331357282
1.331281065
1.331192088
1.331090455
1.330976339
1.330849849
1.330711008
1.330559759
1.330396316
1.330220882
1.330033449
1.329834075
1.329622859
1.329400065
1.329165639
1.328919825
1.328662344
1.328393680
1.328113501
1.327822327
1.327520029
1.327207161
1.326883138
1.326547994
1.326202307
1.325845955
1.325479547
1.325102377
1.324714445
1.324316496
1.323908896
1.323490487
1.323062313
1.322624135
1.322176387
1.321718810
1.321251155
1.320774494
1.320287914
1.319791826
1.319287104
1.318772615
1.318248498
1.317716445
1.317174426
1.316623427
1.316064320
1.315495970
1.314919708
1.314333852
1.313739419
1.313137343
1.312526343
1.311907936
1.311280264
1.310645363
1.310001828
1.309350740
1.308691155
1.308024703
1.307349850
1.306667832
1.305977601
1.305280805
1.304575443
1.303863686
1.303144053
1.302417631
1.301683468
1.300943254
1.300196563
1.299441107
1.298680505
1.297911852
1.297137628
1.296357320
1.295568532
1.294775042
1.293973812
1.293167361
1.292355274
1.291535636
1.290710373
1.289879698
1.289042242
1.288199522
1.287350817
1.286496935
1.285636669
1.284771303
1.283900297
1.283023028
1.282141636
1.281254813
1.280362626
1.279465140
1.278561710
1.277654537
1.276742270
1.275825627
1.274903372
1.273975485
1.273044154
1.272108134
1.271167340
1.270222656
1.269272732
1.268318224
1.267360027
1.266397529
1.265431406
1.264460271
1.263485717
1.262507041
1.261525084
1.260538355
1.259548394
1.258554641
1.257557080
1.256556483
1.255550691
1.254542863
1.253531392
1.252516498
1.251498079
1.250477166
1.249453663
1.248426088
1.247395310
1.246362206
1.245326019
1.244286066
1.243244630
1.242199541
1.241151600
1.240101697
1.239049059
1.237993743
1.236935805
1.235876900
1.234814733
1.233750031
1.232683019
1.231614430
1.230542794
1.229469695
1.228395278
1.227317975
1.226239380
1.225157918
1.224075360
1.222992627
1.221906324
1.220818227
1.219729255
1.218639378
1.217547087
1.216454084
1.215358682
1.214263460
1.213166028
1.212067224
1.210968760
1.209867276
1.208765535
1.207663417
1.206559302
1.205455087
1.204350559
1.203243476
1.202136268
1.201029957
1.199921059
1.198813159
1.197703651
1.196593381
1.195483459
1.194372959
1.193262726
1.192151214
1.191040152
1.189927726
1.188815935
1.187704648
1.186591424
1.185480575
1.184367791
1.183256674
1.182143803
1.181033400
1.179921422
1.178810313
1.177700118
1.176589281
1.175479535
1.174369148
1.173260826
1.172151062
1.171043361
1.169936966
1.168829348
1.167723122
1.166617355
1.165513151
1.164409489
1.163305616
1.162204225
1.161103677
1.160002955
1.158903952
1.157806707
1.156708620
1.155613251
1.154518879
1.153425545
1.152332412
1.151242061
1.150152953
1.149064950
1.147977395
1.146892857
1.145809540
1.144727570
1.143647071
1.142567040
1.141489425
1.140414086
1.139340280
1.138268045
1.137196556
1.136128432
1.135061129
1.133996399
1.132934276
1.131873082
1.130814478
1.129756962
1.128701340
1.127648495
1.126597610
1.125549481
1.124503378
1.123459421
1.122417475
1.121378497
1.120340926
1.119306302
1.118273905
1.117243769
1.116216754
1.115191317
1.114168898
1.113148950
1.112131420
1.111117162
1.110104565
1.109095299
1.108088494
1.107084344
1.106083607
1.105086229
1.104090703
1.103097951
1.102107842
1.101120565
1.100136788
1.099155819
1.098177768
1.097203293
1.096231710
1.095262263
1.094296553
1.093333821
1.092374094
1.091418952
1.090466013
1.089516237
1.088569574
1.087627504
1.086687144
1.085750662
1.084816717
1.083888206
1.082961527
1.082038070
1.081118755
1.080203452
1.079290771
1.078382223
1.077477089
1.076575394
1.075677163
1.074783148
1.073891917
1.073004945
1.072122248
1.071242410
1.070366176
1.069494209
1.068625959
1.067762010
1.066901118
1.066044568
1.065191126
1.064342066
1.063497470
1.062655368
1.061819068
1.060985242
1.060156632
1.059330551
1.058510384
1.057692796
1.056879813
1.056070788
1.055266397
1.054464693
1.053668896
1.052875899
1.052088245
1.051304592
1.050523816
1.049748991
1.048977087
1.048210520
1.047448108
1.046688692
1.045935264
1.045184815
1.044439817
1.043699058
1.042961410
1.042229724
1.041501786
1.040778156
1.040059438
1.039345054
1.038634440
1.037928777
1.037228013
1.036531699
1.035838660
1.035151691
1.034468595
1.033790565
1.033115839
1.032447249
1.031782654
1.031122512
1.030467429
1.029815808
1.029170333
1.028528881
1.027891999
1.027260219
1.026633029
1.026009422
1.025391965
1.024778577
1.024170380
1.023566829
1.022967888
1.022373668
1.021784083
1.021199721
1.020619059
1.020044114
1.019474312
1.018908772
1.018348437
1.017792439
1.017241613
1.016696004
1.016154723
1.015618626
1.015086973
1.014560474
1.014038829
1.013522428
1.013010429
1.012503643
1.012001739
1.011504682
1.011013251
1.010525870
1.010043798
1.009566561
1.009094246
1.008626781
1.008164594
1.007706966
1.007254584
1.006807813
1.006365290
1.005927979
1.005495307
1.005067890
1.004645374
1.004228522
1.003815924
1.003408615
1.003006225
1.002608824
1.002216677
1.001829522
1.001446984
1.001069766
1.000697797
1.000330526
0.999968506
0.999611759
0.999259696
0.998912334
0.998570534
0.998233719
0.997901893
0.997575059
0.997253484
0.996936638
0.996625306
0.996318455
0.996016833
0.995720479
0.995428878
0.995142255
0.994861126
0.994584735
0.994313568
0.994047195
0.993786234
0.993529858
0.993278878
0.993032683
0.992791484
0.992555476
0.992324458
0.992098613
0.991877385
0.991661686
0.991450611
0.991244861
0.991044064
0.990847929
0.990657249
0.990471205
0.990290299
0.990114354
0.989943497
0.989777591
0.989616515
0.989460637
0.989309447
0.989163459
0.989022390
0.988886136
0.988755032
0.988628840
0.988507360
0.988390994
0.988279621
0.988172966
0.988071371
0.987974668
0.987882694
0.987795823
0.987713739
0.987636591
0.987564171
0.987496729
0.987434174
0.987376401
0.987323422
0.987275348
0.987232087
0.987193634
0.987160004
0.987131115
0.987107058
0.987087773
0.987073254
0.987063494
0.987058488
0.987058220
0.987062691
0.987071881
0.987085786
0.987104381
0.987127688
0.987155662
0.987188308
0.987225624
0.987267560
0.987314176
0.987365391
0.987421231
0.987481680
0.987546683
0.987616395
0.987690573
0.987769321
0.987852555
0.987940408
0.988032720
0.988129562
0.988230906
0.988336751
0.988447086
0.988561909
0.988681088
0.988804716
0.988932793
0.989065285
0.989202203
0.989343404
0.989488852
0.989638805
0.989793119
0.989951780
0.990114636
0.990281794
0.990453415
0.990628896
0.990808933
0.990993076
0.991181622
0.991374241
0.991570906
0.991771784
0.991977001
0.992186213
0.992399414
0.992616913
0.992838556
0.993064289
0.993293744
0.993527465
0.993765223
0.994006838
0.994252684
0.994502329
0.994755747
0.995013352
0.995275116
0.995540194
0.995809598
0.996082726
0.996359480
0.996640337
0.996924585
0.997213125
0.997505485
0.997801141
0.998100850
0.998403803
0.998710985
0.999021389
0.999335998
0.999654053
0.999975224
1.000300558
1.000629268
1.000961582
1.001297195
1.001636659
1.001979379
1.002325621
1.002675067
1.003027993
1.003384987
1.003744540
1.004108098
1.004474433
1.004844777
1.005217558
1.005593991
1.005974030
1.006356745
1.006742693
1.007132587
1.007524709
1.007920673
1.008319517
1.008721179
1.009126322
1.009534234
1.009945236
1.010358954
1.010776428
1.011196213
1.011618995
1.012045118
1.012473830
1.012905139
1.013339314
1.013776743
1.014216694
1.014659439
1.015104650
1.015552643
1.016004130
1.016457620
1.016913781
1.017372274
1.017833425
1.018297209
1.018764364
1.019233346
1.019704524
1.020178559
1.020654776
1.021133433
1.021614546
1.022097674
1.022583620
1.023071568
1.023562668
1.024055252
1.024549750
1.025046902
1.025545913
1.026047527
1.026550945
1.027056090
1.027563760
1.028073584
1.028585049
1.029098565
1.029614061
1.030131599
1.030650658
1.031172105
1.031694158
1.032218948
1.032745593
1.033274064
1.033803877
1.034335962
1.034869282
1.035404313
1.035940607
1.036478970
1.037018071
1.037559181
1.038101901
1.038646153
1.039191862
1.039738620
1.040286346
1.040835956
1.041386947
1.041939243
1.042492000
1.043046474
1.043602639
1.044159649
1.044716843
1.045276166
1.045836140
1.046397701
1.046958925
1.047522111
1.048086353
1.048650546
1.049216219
1.049783245
1.050349727
1.050918038
1.051487114
1.052056036
1.052626200
1.053197081
1.053768101
1.054340316
1.054912156
1.055485077
1.056059045
1.056632089
1.057206562
1.057780489
1.058355829
1.058930554
1.059506176
1.060081064
1.060657231
1.061232695
1.061809320
1.062385172
1.062961616
1.063537218
1.064113893
1.064689605
1.065265770
1.065841453
1.066417569
1.066993081
1.067568454
1.068143154
1.068717645
1.069292389
1.069866353
1.070439500
1.071013292
1.071585747
1.072158224
1.072729740
1.073300311
1.073871290
1.074440754
1.075009559
1.075578264
1.076145246
1.076712053
1.077277608
1.077842813
1.078406743
1.078969804
1.079531467
1.080093165
1.080652901
1.081211617
1.081769275
1.082326321
1.082881261
1.083435077
1.083987634
1.084538941
1.085089439
1.085638175
1.086185019
1.086730506
1.087274501
1.087817061
1.088358050
1.088897052
1.089435345
1.089971104
1.090505181
1.091037538
1.091567670
1.092096465
1.092622958
1.093147570
1.093670262
1.094190992
1.094709265
1.095225498
1.095740100
1.096251723
1.096761587
1.097269244
1.097774256
1.098277378
1.098777730
1.099275756
1.099770936
1.100264054
1.100754289
1.101242374
1.101727494
1.102209571
1.102688991
1.103165708
1.103640097
1.104111239
1.104579593
1.105044705
1.105507269
1.105966067
1.106422270
1.106875430
1.107325543
1.107772485
1.108216251
1.108656065
1.109092970
1.109526573
1.109956866
1.110383019
1.110806452
1.111226072
1.111642136
1.112054308
1.112462876
1.112868149
1.113269016
1.113666498
1.114060540
1.114450367
1.114835707
1.115217438
1.115595539
1.115968967
1.116338672
1.116703666
1.117065130
1.117422399
1.117774529
1.118123280
1.118466821
1.118806569
1.119141926
1.119472233
1.119798298
1.120119554
1.120436493
1.120748233
1.121055805
1.121358127
1.121655932
1.121948648
1.122236743
1.122519411
1.122797608
1.123070298
1.123338167
1.123600713
1.123858082
1.124110248
1.124356967
1.124598584
1.124834666
1.125065539
1.125290589
1.125510333
1.125724559
1.125933014
1.126136001
1.126333147
1.126524398
1.126710191
1.126889849
1.127063640
1.127231660
1.127393420
1.127549309
1.127699012
1.127842719
1.127980137
1.128111344
1.128236400
1.128354938
1.128467114
1.128572897
1.128672216
1.128765110
1.128851295
1.128930944
1.129003878
1.129070110
1.129129634
1.129182304
1.129228078
1.129266956
1.129298885
1.129323812
1.129341697
1.129352459
1.129356062
1.129352459
1.129341603
1.129323462
1.129297951
1.129265029
1.129224679
1.129176828
1.129121414
1.129058394
1.128987709
1.128909372
1.128823204
1.128729288
1.128627504
1.128517810
1.128400239
1.128274537
1.128140874
1.127999086
1.127849120
1.127690935
1.127524586
1.127349778
1.127166708
1.126975217
1.126775232
1.126566699
1.126349563
1.126124159
1.125889878
1.125646842
1.125394973
1.125134261
1.124864873
1.124586751
1.124299365
1.124002930
1.123697337
1.123382557
1.123059122
1.122726147
1.122383490
1.122031739
1.121670534
1.121300493
1.120920571
1.120530688
1.120131849
1.119722933
1.119304619
1.118876096
1.118438436
1.117990083
1.117532138
1.117064951
1.116586866
1.116098572
1.115601003
1.115092682
1.114574509
1.114045541
1.113506085
1.112957132
1.112397201
1.111827142
1.111245919
1.110653982
1.110051820
1.109438846
1.108815568
1.108180223
1.107535632
1.106878836
1.106211539
1.105533032
1.104844005
1.104142456
1.103431439
1.102707823
1.101973428
1.101227479
1.100470672
1.099700946
1.098921593
1.098129904
1.097325643
1.096511017
1.095683769
1.094845411
1.093994989
1.093131729
1.092257930
1.091370364
1.090472182
1.089561726
1.088638095
1.087703667
1.086756889
1.085796740
1.084824010
1.083839448
1.082842294
1.081832398
1.080809604
1.079774981
1.078727358
1.077665893
1.076592257
1.075506519
1.074406645
1.073293652
1.072168306
1.071029639
1.069877589
1.068713158
1.067534166
1.066341600
1.065136502
1.063917730
1.062685221
1.061440051
1.060181043
1.058906851
1.057618784
1.056317852
1.055003910
1.053674739
1.052332577
1.050976032
1.049605161
1.048220028
1.046820315
1.045407378
1.043978708
1.042536583
1.041079772
1.039608346
1.038123334
1.036622094
1.035107300
1.033577523
1.032032698
1.030472762
1.028897648
1.027308604
1.025702952
1.024083412
1.022448461
1.020800911
1.019134967
1.017453261
1.015757591
1.014046052
1.012318892
1.010575728
1.008816812
1.007045018
1.005255592
1.003450250
1.001628595
0.999790724
0.997938275
0.996069507
0.994184354
0.992280998
0.990362858
0.988431690
0.986480339
0.984514079
0.982529234
0.980531033
0.978514296
0.976482472
0.974433463
0.972367577
0.970282641
0.968184151
0.966066667
0.963933618
0.961783195
0.959615529
0.957428140
0.955227203
0.953006808
0.950772416
0.948516558
0.946242642
0.943955030
0.941647364
0.939325965
0.936982212
0.934620296
0.932244320
0.929846123
0.927433571
0.925000622
0.922553498
0.920083559
0.917599602
0.915092399
0.912570873
0.910028474
0.907471714
0.904891322
0.902296972
0.899683382
0.897045844
0.894396459
0.891723198
0.889032865
0.886325687
0.883594069
0.880848011
0.878079861
0.875297239
0.872492384
0.869667790
0.866823384
0.863964140
0.861077262
0.858178397
0.855256530
0.852314804
0.849352877
0.846373167
0.843375932
0.840353029
0.837312461
0.834253930
0.831174842
0.828069654
0.824949200
0.821810891
0.818648839
0.815463209
0.812262806
0.809040789
0.805797678
0.802536436
0.799250939
0.795941058
0.792615941
0.789269097
0.785901073
0.782511487
0.779103123
0.775670213
0.772218737
0.768745126
0.765246694
0.761729211
0.758190021
0.754631711
0.751051592
0.747448927
0.743823974
0.740176658
0.736507249
0.732818432
0.729103611
0.725369617
0.721612934
0.717833488
0.714034753
0.710209581
0.706365014
0.702497431
0.698606393
0.694692552
0.690759147
0.686802102
0.682822080
0.678814897
0.674787563
0.670737034
0.666666288
0.662568417
0.658454070
0.654312065
0.650146546
0.645956661
0.641742722
0.637505049
0.633250750
0.628968253
0.624661445
0.620330251
0.615974595
0.611602602
0.607197842
0.602772538
0.598322516
0.593851472
0.589351805
0.584831431
0.580285653
0.575715248
0.571119713
0.566502873
0.561856874
0.557185078
0.552496651
0.547778819
0.543035002
0.538270039
0.533475375
0.528654489
0.523816848
0.518944686
0.514055256
0.509135220
0.504189071
0.499226074
0.494227518
0.489211586
0.484165056
0.479096846
0.473997365
0.468876097
0.463727713
0.458557970
0.453351700
0.448127862
0.442872674
0.437599909
0.432290649
0.426963751
0.421600104
0.416218761
0.410805514
0.405374563
0.399911042
0.394419970
0.388901269
0.383355383
0.377786446
0.372194448
0.366565053
0.360912441
0.355236604
0.349527839
0.343796279
0.338036487
0.332248383
0.326431338
0.320591889
0.314712851
0.308821293
0.302896089
