# corrn_curve_linear
1.593616933
1.592825035
1.592032048
1.591240150
1.590447162
1.589655322
1.588863424
1.588071583
1.587279686
1.586487788
1.585697037
1.584905196
1.584114445
1.583322548
1.582531797
1.581741046
1.580950295
1.580159544
1.579369882
1.578579132
1.577789528
1.576998777
1.576210262
1.575420601
1.574630997
1.573841336
1.573051674
1.572263160
1.571473556
1.570685041
1.569896527
1.569108013
1.568319498
1.567530984
1.566743559
1.565955044
1.565167677
1.564380310
1.563591795
1.562804370
1.562017003
1.561230725
1.560443300
1.559655933
1.558869655
1.558083377
1.557297099
1.556509674
1.555724543
1.554938265
1.554151987
1.553366856
1.552580578
1.551795390
1.551010259
1.550225128
1.549439940
1.548654809
1.547869621
1.547084490
1.546301595
1.545516407
1.544732365
1.543948324
1.543163193
1.542380299
1.541596257
1.540813363
1.540029321
1.539246370
1.538463475
1.537680581
1.536897629
1.536114734
1.535331840
1.534550035
1.533767083
1.532985336
1.532203531
1.531421726
1.530638832
1.529858116
1.529076369
1.528294564
1.527512759
1.526732101
1.525952533
1.525170728
1.524390070
1.523609412
1.522828697
1.522049128
1.521268470
1.520488902
1.519709391
1.518929249
1.518149681
1.517370686
1.516590601
1.515812180
1.515033185
1.514254764
1.513475195
1.512696774
1.511918295
1.511139300
1.510361452
1.509583547
1.508806272
1.508028367
1.507249946
1.506472614
1.505695339
1.504918581
1.504141249
1.503363917
1.502587159
1.501810458
1.501034216
1.500258031
1.499481846
1.498704514
1.497928902
1.497152718
1.496377049
1.495602011
1.494826342
1.494051304
1.493276209
1.492501171
1.491726075
1.490951553
1.490176458
1.489401420
1.488626898
1.487852950
1.487078428
1.486304480
1.485530531
1.484757156
1.483983151
1.483209776
1.482437490
1.481664115
1.480891257
1.480118455
1.479345596
1.478572795
1.477799936
1.477027651
1.476255423
1.475483137
1.474710852
1.473939140
1.473168002
1.472396806
1.471625094
1.470853382
1.470082244
1.469311105
1.468541056
1.467769918
1.466999296
1.466228731
1.465458108
1.464688633
1.463918068
1.463148019
1.462377970
1.461607979
1.460839020
1.460069544
1.459300069
1.458531740
1.457762265
1.456993363
1.456224461
1.455456075
1.454687747
1.453918845
1.453151033
1.452382647
1.451614892
1.450847653
1.450079267
1.449312602
1.448544847
1.447777035
1.447010369
1.446243130
1.445475891
1.444709800
1.443942561
1.443176985
1.442409746
1.441644228
1.440878078
1.440112560
1.439345894
1.438580892
1.437814743
1.437049740
1.436284222
1.435519793
1.434754217
1.433989788
1.433224213
1.432460357
1.431695355
1.430931499
1.430166497
1.429403215
1.428639302
1.427874873
1.427111592
1.426347679
1.425584397
1.424821631
1.424057776
1.423295010
1.422532817
1.421769478
1.421007286
1.420245093
1.419481811
1.418720192
1.417958000
1.417195808
1.416434131
1.415672513
1.414911467
1.414149275
1.413388172
1.412627127
1.411866597
1.411104978
1.410344449
1.409583920
1.408823390
1.408062345
1.407302389
1.406542433
1.405782477
1.405023095
1.404263139
1.403503183
1.402743801
1.401984418
1.401225552
1.400466743
1.399707877
1.398949068
1.398190202
1.397431966
1.396672584
1.395914291
1.395156572
1.394398279
1.393640617
1.392882898
1.392125752
1.391368032
1.390610887
1.389853683
1.389096537
1.388339392
1.387582819
1.386825673
1.386069044
1.385313045
1.384556415
1.383800416
1.383044360
1.382288361
1.381532304
1.380777395
1.380021912
1.379266429
1.378510947
1.377756037
1.377001128
1.376245645
1.375490736
1.374736973
1.373982637
1.373228244
1.372473908
1.371719572
1.370965179
1.370212506
1.369458170
1.368704924
1.367951162
1.367197342
1.366445242
1.365691996
1.364938807
1.364185561
1.363433461
1.362680789
1.361928116
1.361176532
1.360424433
1.359671760
1.358920750
1.358168651
1.357417068
1.356666115
1.355914532
1.355163006
1.354411996
1.353660986
1.352910034
1.352159598
1.351408588
1.350658725
1.349908289
1.349157279
1.348407989
1.347657553
1.346908206
1.346158344
1.345409054
1.344659191
1.343909844
1.343161129
1.342411782
1.341663066
1.340913719
1.340165519
1.339416803
1.338668604
1.337920977
1.337172204
1.336424578
1.335676378
1.334928751
1.334181125
1.333434072
1.332686962
1.331938762
1.331192283
1.330444656
1.329698119
1.328952156
1.328204530
1.327458567
1.326712603
1.325965550
1.325220160
1.324474197
1.323727718
1.322982328
1.322237454
1.321490975
1.320746158
1.320001285
1.319256468
1.318511078
1.317766262
1.317021962
1.316277719
1.315532329
1.314788602
1.314044302
1.313300633
1.312556906
1.311812032
1.311068936
1.310325209
1.309582056
1.308838903
1.308096323
1.307352596
1.306609443
1.305866863
1.305124225
1.304382219
1.303639639
1.302897575
1.302155569
1.301413505
1.300672072
1.299929435
1.299188002
1.298446512
1.297705022
1.296963589
1.296222672
1.295481755
1.294740838
1.293999921
1.293259578
1.292519235
1.291778891
1.291038491
1.290298147
1.289558378
1.288819124
1.288079927
1.287340100
1.286600330
1.285861076
1.285121880
1.284382626
1.283643372
1.282904692
1.282166069
1.281427962
1.280689282
1.279951175
1.279212495
1.278474388
1.277736281
1.276999264
1.276261731
1.275523624
1.274786033
1.274048500
1.273312056
1.272575096
1.271837505
1.271100545
1.270364675
1.269627658
1.268891214
1.268154770
1.267418900
1.266683030
1.265946643
1.265211289
1.264475419
1.263739548
1.263004825
1.262269471
1.261533600
1.260799450
1.260064096
1.259328799
1.258594592
1.257859869
1.257126235
1.256391454
1.255656731
1.254923097
1.254188890
1.253455829
1.252721622
1.251988562
1.251254928
1.250521868
1.249788234
1.249055747
1.248322629
1.247590142
1.246857082
1.246125111
1.245392051
1.244660080
1.243927593
1.243195622
1.242463136
1.241731738
1.241000914
1.240268370
1.239537546
1.238805576
1.238074752
1.237344501
1.236612531
1.235882280
1.235150883
1.234420575
1.233690898
1.232960075
1.232229767
1.231500090
1.230769782
1.230040105
1.229310371
1.228581210
1.227851533
1.227122373
1.226393212
1.225663478
1.224934890
1.224206303
1.223477716
1.222749128
1.222019968
1.221291954
1.220563940
1.219836442
1.219108428
1.218379841
1.217652343
1.216924903
1.216197405
1.215470481
1.214743040
1.214015543
1.213288618
1.212561751
1.211835401
1.211108476
1.210382126
1.209655775
1.208929997
1.208203647
1.207477812
1.206752035
1.206026257
1.205300996
1.204574645
1.203849441
1.203124180
1.202398976
1.201673715
1.200949085
1.200224970
1.199500283
1.198775595
1.198051481
1.197327366
1.196602736
1.195879138
1.195155023
1.194430909
1.193707368
1.192983827
1.192260287
1.191536746
1.190814295
1.190091327
1.189368303
1.188645335
1.187922884
1.187199917
1.186477465
1.185755588
1.185033194
1.184311316
1.183588865
1.182866987
1.182146256
1.181424378
1.180702500
1.179981196
1.179260408
1.178539104
1.177818373
1.177097068
1.176376854
1.175656123
1.174935392
1.174215751
1.173494963
1.172774805
1.172055164
1.171334949
1.170615365
1.169896240
1.169176083
1.168456441
1.167737947
1.167018306
1.166299812
1.165580744
1.164861619
1.164143124
1.163424630
1.162706652
1.161988157
1.161270237
1.160551685
1.159833764
1.159116359
1.158397865
1.157681034
1.156963055
1.156246224
1.155528303
1.154811988
1.154094641
1.153377809
1.152661494
1.151944663
1.151228405
1.150511574
1.149795889
1.149079058
1.148363317
1.147648148
1.146931890
1.146216206
1.145500464
1.144785354
1.144070185
1.143354444
1.142639849
1.141925311
1.141210143
1.140495548
1.139781527
1.139066359
1.138352338
1.137638316
1.136924295
1.136209700
1.135496195
1.134782747
1.134069242
1.133355221
1.132642346
1.131929415
1.131216483
1.130503608
1.129790103
1.129077229
1.128364871
1.127652512
1.126940154
1.126227222
1.125515438
1.124803079
1.124091295
1.123380083
1.122668298
1.121957030
1.121245245
1.120533460
1.119822249
1.119111037
1.118400342
1.117689647
1.116979009
1.116268314
1.115558192
1.114847554
1.114137433
1.113427311
1.112717189
1.112007641
1.111297576
1.110587971
1.109878423
1.109168874
1.108459899
1.107750351
1.107041376
1.106332344
1.105623369
1.104914968
1.104207083
1.103498624
1.102790223
1.102081764
1.101373363
1.100665478
1.099957592
1.099249764
1.098542453
1.097835141
1.097127256
1.096419944
1.095712632
1.095005320
1.094299156
1.093592360
1.092885622
1.092178883
1.091473235
1.090766496
1.090060274
1.089353536
1.088648461
1.087942296
1.087236073
1.086530482
1.085825407
1.085119758
1.084414683
1.083709608
1.083004532
1.082299457
1.081594955
1.080889880
1.080185378
1.079481450
1.078776948
1.078072446
1.077368461
1.076664532
1.075961120
1.075257192
1.074553780
1.073849851
1.073146439
1.072443600
1.071739672
1.071037407
1.070333995
1.069631729
1.068928317
1.068226625
1.067523787
1.066821521
1.066119256
1.065417564
1.064714726
1.064013550
1.063311285
1.062610166
1.061908991
1.061206725
1.060506123
1.059804431
1.059103829
1.058403227
1.057701535
1.057001506
1.056300331
1.055600302
1.054900273
1.054199155
1.053499642
1.052799613
1.052099585
1.051400129
1.050700674
1.050000645
1.049301190
1.048602251
1.047903369
1.047203340
1.046504974
1.045806035
1.045107727
1.044408214
1.043710422
1.043012114
1.042313748
1.041615956
1.040917016
1.040219798
1.039522005
1.038824213
1.038126994
1.037429776
1.036731410
1.036034765
1.035337488
1.034640843
1.033944198
1.033247495
1.032550850
1.031854147
1.031158075
1.030460799
1.029764727
1.029069172
1.028373042
1.027677487
1.026981415
1.026285859
1.025590877
1.024895321
1.024200282
1.023504783
1.022809744
1.022114761
1.021420352
1.020725370
1.020030904
1.019336495
1.018642086
1.017948767
1.017254301
1.016560466
1.015866573
1.015172738
1.014478845
1.013785526
1.013091690
1.012398371
1.011706142
1.011012880
1.010320077
1.009626815
1.008934069
1.008241266
1.007549667
1.006856921
1.006164749
1.005472519
1.004780347
1.004088691
1.003397092
1.002704862
1.002013264
1.001322181
1.000630582
0.999939499
0.999248990
0.998557907
0.997866251
0.997175742
0.996485233
0.995794724
0.995104214
0.994414279
0.993723769
0.993034407
0.992343898
0.991653905
0.990964542
0.990274607
0.989584613
0.988895825
0.988206405
0.987517559
0.986828196
0.986139924
0.985450561
0.984762289
0.984073443
0.983384596
0.982696324
0.982008051
0.981320352
0.980631505
0.979944380
0.979256107
0.978568981
0.977881798
0.977193525
0.976506973
0.975819216
0.975132090
0.974444965
0.973758355
0.973071745
0.972384620
0.971698583
0.971011400
0.970325421
0.969639385
0.968952775
0.968267313
0.967581850
0.966895240
0.966209778
0.965524888
0.964838852
0.964153905
0.963469016
0.962782980
0.962098664
0.961413717
0.960729402
0.960043882
0.959359566
0.958675766
0.957991393
0.957306504
0.956622704
0.955938904
0.955255162
0.954571936
0.953887562
0.953204336
0.952521110
0.951837884
0.951154657
0.950471947
0.949788721
0.949105495
0.948422842
0.947740189
0.947058053
0.946375400
0.945693263
0.945011184
0.944329047
0.943647484
0.942965405
0.942283842
0.941602278
0.940920773
0.940239783
0.939557646
0.938876657
0.938195667
0.937515251
0.936834261
0.936153845
0.935473371
0.934792955
0.934112538
0.933432122
0.932751649
0.932071806
0.931391963
0.930712063
0.930032220
0.929352320
0.928672993
0.927994297
0.927314971
0.926635644
0.925956317
0.925277564
0.924598868
0.923919542
0.923241878
0.922563125
0.921884945
0.921206192
0.920528012
0.919850406
0.919172742
0.918494563
0.917816956
0.917139866
0.916462260
0.915784596
0.915106990
0.914430473
0.913753383
0.913076350
0.912399834
0.911722743
0.911046227
0.910370283
0.909693767
0.909016734
0.908341307
0.907664848
0.906988847
0.906313477
0.905637534
0.904962680
0.904286737
0.903610794
0.902935998
0.902260570
0.901586290
0.900910921
0.900236640
0.899561271
0.898886417
0.898212710
0.897537914
0.896863634
0.896189354
0.895515647
0.894841367
0.894167660
0.893493953
0.892820820
0.892147687
0.891473407
0.890800789
0.890127083
0.889454523
0.888780816
0.888108773
0.887436155
0.886763022
0.886090978
0.885418992
0.884745802
0.884074331
0.883401772
0.882729728
0.882058258
0.881386214
0.880714744
0.880043274
0.879372377
0.878700333
0.878029437
0.877358540
0.876687070
0.876016173
0.875345792
0.874675469
0.874004572
0.873334192
0.872663868
0.871994061
0.871324254
0.870653357
0.869983550
0.869313800
0.868644567
0.867975333
0.867306099
0.866635776
0.865966542
0.865297825
0.864628648
0.863959931
0.863291271
0.862622610
0.861954524
0.861285863
0.860617719
0.859948486
0.859280399
0.858612828
0.857944741
0.857277171
0.856609084
0.855941513
0.855274516
0.854607003
0.853939432
0.853272435
0.852605438
0.851938498
0.851271501
0.850605077
0.849938080
0.849272746
0.848606322
0.847939899
0.847273475
0.846607625
0.845941144
0.845275293
0.844609443
0.843944109
0.843278259
0.842613498
0.841948221
0.841282887
0.840617553
0.839952276
0.839287516
0.838623328
0.837958568
0.837293807
0.836629104
0.835965433
0.835301245
0.834636542
0.833972298
0.833309257
0.832645070
0.831981456
0.831317269
0.830654745
0.829991131
0.829327460
0.828664993
0.828001896
0.827338282
0.826676331
0.826013234
0.825350194
0.824688243
0.824025719
0.823363195
0.822701301
0.822038777
0.821377400
0.820715449
0.820052925
0.819392064
0.818730113
0.818069310
0.817407359
0.816746555
0.816085121
0.815424890
0.814763513
0.814103225
0.813441848
0.812781561
0.812120757
0.811461043
0.810800182
0.810140467
0.809480237
0.808820523
0.808160235
0.807500521
0.806840807
0.806181666
0.805522526
0.804862811
0.804203671
0.803545103
0.802885389
0.802226765
0.801567624
0.800909057
0.800251006
0.799591865
0.798933814
0.798275820
0.797617195
0.796959775
0.796301724
0.795644246
0.794986253
0.794328775
0.793671297
0.793014393
0.792356342
0.791699438
0.791042534
0.790385629
0.789728152
0.789071821
0.788415433
0.787759102
0.787102771
0.786445867
0.785789479
0.785133722
0.784477907
0.783822150
0.783166335
0.782510578
0.781855337
0.781199006
0.780543765
0.779888524
0.779233283
0.778578615
0.777923374
0.777268706
0.776614039
0.775959371
0.775304703
0.774650609
0.773996515
0.773341847
0.772688269
0.772034175
0.771380081
0.770726503
0.770072409
0.769418888
0.768765310
0.768112305
0.767458784
0.766805780
0.766152259
0.765499254
0.764846823
0.764194392
0.763541961
0.762888956
0.762236582
0.761584151
0.760932236
0.760279805
0.759628521
0.758976663
0.758324805
0.757672890
0.757021033
0.756369175
0.755718407
0.755067123
0.754415838
0.753764497
0.753114302
0.752463018
0.751812250
0.751161539
0.750511344
0.749861150
0.749210382
0.748560760
0.747910566
0.747259798
0.746609660
0.745960555
0.745310934
0.744660739
0.744011692
0.743362071
0.742713539
0.742063918
0.741414297
0.740766338
0.740116717
0.739468759
0.738819711
0.738170606
0.737522648
0.736874174
0.736226216
0.735577684
0.734930300
0.734281825
0.733634441
0.732986483
0.732339098
0.731691140
0.731044329
0.730396370
0.729749559
0.729102174
0.728455306
0.727808495
0.727161684
0.726515388
0.725868577
0.725222282
0.724575471
0.723929749
0.723283512
0.722637217
0.721991495
0.721345257
0.720699536
0.720054387
0.719408150
0.718763001
0.718117853
0.717472132
0.716827557
0.716182409
0.715537777
0.714892629
0.714248054
0.713603479
0.712958331
0.712314273
0.711670271
0.711026213
0.710382212
0.709737637
0.709094152
0.708450150
0.707806665
0.707163180
0.706519179
0.705875694
0.705232782
0.704589871
0.703946959
0.703304047
0.702660620
0.702017708
0.701375312
0.700732458
0.700090063
0.699448298
0.698805960
0.698163622
0.697521799
0.696880035
0.696238213
0.695596448
0.694954683
0.694313435
0.693671670
0.693030421
0.692389173
0.691747982
0.691107306
0.690466058
0.689825383
0.689184708
0.688544032
0.687903415
0.687263256
0.686622638
0.685982479
0.685342377
0.684702276
0.684062174
0.683422072
0.682783060
0.682143532
0.681504004
0.680864418
0.680224890
0.679585935
0.678947497
0.678308485
0.677669530
0.677030518
0.676391506
0.675753641
0.675115259
0.674476247
0.673837809
0.673199370
0.672562078
0.671924213
0.671285774
0.670648483
0.670010618
0.669373326
0.668735461
0.668098685
0.667460820
0.666823528
0.666187326
0.665550035
0.664912686
0.664276541
0.663639765
0.663003563
0.662366845
0.661730069
0.661094441
0.660458296
0.659822667
0.659186465
0.658550263
0.657914634
0.657279006
0.656643951
0.656007749
0.655373267
0.654737638
0.654102583
0.653467471
0.652832989
0.652197360
0.651563395
0.650928339
0.650293858
0.649659319
0.649025353
0.648390298
0.647756906
0.647122998
0.646488459
0.645855066
0.645221101
0.644587766
0.643954374
0.643320408
0.642687590
0.642053624
0.641420805
0.640787987
0.640154595
0.639522292
0.638890047
0.638257228
0.637624410
0.636992107
0.636359862
0.635727617
0.635095314
0.634463642
0.633831913
0.633199668
0.632567939
0.631936783
0.631305054
0.630673383
0.630042227
0.629411071
0.628779916
0.628149334
0.627518178
0.626887022
0.626256440
0.625625858
0.624995276
0.624365267
0.623735259
0.623104619
0.622474037
0.621844028
0.621214536
0.620584527
0.619955092
0.619325599
0.618696107
0.618066672
0.617437179
0.616808260
0.616178825
0.615549906
0.614920986
0.614292125
0.613663779
0.613034860
0.612406514
0.611778169
0.611149823
0.610521477
0.609893132
0.609265302
0.608636957
0.608009185
0.607381412
0.606754730
0.606126958
0.605499128
0.604871929
0.604244673
0.603617475
0.602990219
0.602363020
0.601736911
0.601110228
0.600483603
0.599856920
0.599230238
0.598604129
0.597978020
0.597351910
0.596725228
0.596099119
0.595474157
0.594848047
0.594222512
0.593596403
0.592971383
0.592345847
0.591720885
0.591095866
0.590470904
0.589845368
0.589220922
0.588595960
0.587971514
0.587347068
0.586722679
0.586097659
0.585473787
0.584849398
0.584226041
0.583601653
0.582977207
0.582353908
0.581730035
0.581107309
0.580483437
0.579859564
0.579236781
0.578612966
0.577990183
0.577366884
0.576744674
0.576121375
0.575499223
0.574875924
0.574253714
0.573630988
0.573009352
0.572386569
0.571764990
0.571143354
0.570520571
0.569899509
0.569277357
0.568655720
0.568034658
0.567412448
0.566791386
0.566169750
0.565549260
0.564928198
0.564307135
0.563686073
0.563066099
0.562444463
0.561824548
0.561204001
0.560583512
0.559963023
0.559343050
0.558723650
0.558103161
0.557483245
0.556863846
0.556244446
0.555623957
0.555004558
0.554385731
0.553766332
0.553146416
0.552527705
0.551908879
0.551290052
0.550671800
0.550052974
0.549433574
0.548815322
0.548197012
0.547578759
0.546960506
0.546342770
0.545724517
0.545106838
0.544489101
0.543870849
0.543253112
0.542635433
0.542018270
0.541401164
0.540784001
0.540166838
0.539549675
0.538932569
0.538315980
0.537698817
0.537082227
0.536465637
0.535849048
0.535233032
0.534616442
0.534000426
0.533384410
0.532768336
0.532152320
0.531536878
0.530921378
0.530305935
0.529689919
0.529074419
0.528458976
0.527844050
0.527228607
0.526614254
0.525999327
0.525384458
0.524769531
0.524154605
0.523539736
0.522925956
0.522311603
0.521697250
0.521082897
0.520468544
0.519855338
0.519240985
0.518627205
0.518013425
0.517400162
0.516786382
0.516173176
0.515559913
0.514946706
0.514333500
0.513720810
0.513107604
0.512494341
0.511882224
0.511269591
0.510656901
0.510044785
0.509432152
0.508819462
0.508207919
0.507595286
0.506983743
0.506371626
0.505759510
0.505148540
0.504536424
0.503925397
0.503313854
0.502702884
0.502091341
0.501480371
0.500869344
0.500258948
0.499647405
0.499036951
0.498425982
0.497816102
0.497205132
0.496595252
0.495984282
0.495374402
0.494764006
0.494154700
0.493544819
0.492934939
0.492325059
0.491715237
0.491105930
0.490497140
0.489887317
0.489278010
0.488669220
0.488059913
0.487451180
0.486842447
0.486233714
0.485624923
0.485016764
0.484407457
0.483799814
0.483191654
