# corrn_curve_linear
1.746599177
1.745603197
1.744605847
1.743609868
1.742612518
1.741616611
1.740620631
1.739624724
1.738628744
1.737632765
1.736638228
1.735642320
1.734647783
1.733651804
1.732657267
1.731662730
1.730668193
1.729673656
1.728680489
1.727685952
1.726692858
1.725698321
1.724706597
1.723713430
1.722720336
1.721727169
1.720734003
1.719742279
1.718749184
1.717757460
1.716765736
1.715774012
1.714782288
1.713790564
1.712800210
1.711808486
1.710818204
1.709827923
1.708836199
1.707845845
1.706855563
1.705866652
1.704876298
1.703886017
1.702897106
1.701908194
1.700919283
1.699928930
1.698941461
1.697952550
1.696963638
1.695976170
1.694987259
1.693999718
1.693012249
1.692024780
1.691037240
1.690049771
1.689062230
1.688074761
1.687090106
1.686102565
1.685116466
1.684130368
1.683142899
1.682158244
1.681172145
1.680187490
1.679201391
1.678216663
1.677232008
1.676247352
1.675262624
1.674277968
1.673293312
1.672310027
1.671325299
1.670342086
1.669358800
1.668375515
1.667390859
1.666408944
1.665425731
1.664442445
1.663459160
1.662477317
1.661496844
1.660513559
1.659531716
1.658549873
1.657567958
1.656587486
1.655605643
1.654625170
1.653644770
1.652663576
1.651683103
1.650703352
1.649722230
1.648743200
1.647763449
1.646784419
1.645803947
1.644824917
1.643845814
1.642866063
1.641887754
1.640909373
1.639931786
1.638953405
1.637974375
1.636996715
1.636019128
1.635042190
1.634064530
1.633086870
1.632109932
1.631133066
1.630156776
1.629180559
1.628204342
1.627226682
1.626251187
1.625274969
1.624299401
1.623324627
1.622349059
1.621374284
1.620399437
1.619424663
1.618449816
1.617475691
1.616500844
1.615526069
1.614551944
1.613578539
1.612604414
1.611631010
1.610657606
1.609684923
1.608711446
1.607738763
1.606767451
1.605794768
1.604822734
1.603850772
1.602878738
1.601906776
1.600934743
1.599963430
1.598992189
1.598020877
1.597049564
1.596078973
1.595109103
1.594139161
1.593168569
1.592197978
1.591228108
1.590258238
1.589289738
1.588319868
1.587350647
1.586381498
1.585412277
1.584444499
1.583475350
1.582506850
1.581538350
1.580569923
1.579602793
1.578635015
1.577667237
1.576700901
1.575733122
1.574766065
1.573799008
1.572832600
1.571866264
1.570899207
1.569933520
1.568967112
1.568001497
1.567036531
1.566070123
1.565105879
1.564140264
1.563174577
1.562210333
1.561245368
1.560280402
1.559316879
1.558351913
1.557389039
1.556424074
1.555461272
1.554497677
1.553534875
1.552570631
1.551608478
1.550644883
1.549682730
1.548719928
1.547758497
1.546795623
1.545834192
1.544871318
1.543910607
1.542948455
1.541987745
1.541025592
1.540065603
1.539104821
1.538143389
1.537183400
1.536222618
1.535262629
1.534303289
1.533342579
1.532383239
1.531424621
1.530464560
1.529505941
1.528547323
1.527587334
1.526629437
1.525670818
1.524712200
1.523754230
1.522796333
1.521839157
1.520880538
1.519923290
1.518966114
1.518009587
1.517051690
1.516095163
1.515138636
1.514182109
1.513224933
1.512269128
1.511313322
1.510357516
1.509402432
1.508446626
1.507490821
1.506535736
1.505580652
1.504626217
1.503671853
1.502717418
1.501763055
1.500808620
1.499854978
1.498899893
1.497946179
1.496993187
1.496039473
1.495086552
1.494133559
1.493181288
1.492228295
1.491276024
1.490323680
1.489371408
1.488419137
1.487467587
1.486515315
1.485563693
1.484612864
1.483661241
1.482710412
1.481759511
1.480808682
1.479857781
1.478908323
1.477958143
1.477007963
1.476057783
1.475108324
1.474158866
1.473208686
1.472259227
1.471311211
1.470362474
1.469413664
1.468464927
1.467516190
1.466567380
1.465620734
1.464671997
1.463724630
1.462776614
1.461828526
1.460882601
1.459935234
1.458987939
1.458040572
1.457094648
1.456148002
1.455201357
1.454256081
1.453310157
1.452363511
1.451418957
1.450473033
1.449527757
1.448583275
1.447638000
1.446692797
1.445748243
1.444803688
1.443859207
1.442915374
1.441970820
1.441027708
1.440083875
1.439139321
1.438196931
1.437253098
1.436310636
1.435367524
1.434425134
1.433482022
1.432539560
1.431597891
1.430655428
1.429713759
1.428771297
1.427830277
1.426888608
1.425947588
1.425007289
1.424065548
1.423125249
1.422184229
1.421243930
1.420303632
1.419364054
1.418424405
1.417483385
1.416544529
1.415604230
1.414665302
1.413727095
1.412786796
1.411848589
1.410910382
1.409970804
1.409033319
1.408095112
1.407156255
1.406218770
1.405281933
1.404343077
1.403406312
1.402469475
1.401532711
1.400595225
1.399658461
1.398722345
1.397786302
1.396848816
1.395913422
1.394977307
1.394041984
1.393106590
1.392169754
1.391235153
1.390299759
1.389365086
1.388430413
1.387496461
1.386561067
1.385626394
1.384692443
1.383758419
1.382825188
1.381891237
1.380957934
1.380024704
1.379091401
1.378158892
1.377224868
1.376292359
1.375359778
1.374427197
1.373494688
1.372562827
1.371630967
1.370699107
1.369767247
1.368836109
1.367904970
1.366973831
1.366042620
1.365111482
1.364181064
1.363251296
1.362321599
1.361391110
1.360460692
1.359530924
1.358601228
1.357671459
1.356741691
1.355812644
1.354883669
1.353955343
1.353026296
1.352097970
1.351168923
1.350240597
1.349312271
1.348385315
1.347457711
1.346529385
1.345601708
1.344674104
1.343747869
1.342820986
1.341893309
1.340966426
1.340040913
1.339113957
1.338187723
1.337261489
1.336335976
1.335410463
1.334484301
1.333559437
1.332633924
1.331708411
1.330784341
1.329859477
1.328933964
1.328010615
1.327085751
1.326160959
1.325237538
1.324313467
1.323390767
1.322466624
1.321542554
1.320619854
1.319696433
1.318774454
1.317851032
1.316929054
1.316006353
1.315084375
1.314161674
1.313240417
1.312318366
1.311397108
1.310475130
1.309554521
1.308632542
1.307711934
1.306790676
1.305870068
1.304948810
1.304028923
1.303109757
1.302188427
1.301269261
1.300348653
1.299429487
1.298511042
1.297590434
1.296671989
1.295752102
1.294833585
1.293915862
1.292996696
1.292078179
1.291160455
1.290241939
1.289324215
1.288406420
1.287489345
1.286571622
1.285654548
1.284737473
1.283819678
1.282903325
1.281986972
1.281070618
1.280154265
1.279237191
1.278321559
1.277405928
1.276490945
1.275575313
1.274658960
1.273743977
1.272829067
1.271914084
1.270999823
1.270084912
1.269169929
1.268255668
1.267341479
1.266427939
1.265513677
1.264600137
1.263686597
1.262773778
1.261860238
1.260947347
1.260034528
1.259121709
1.258209539
1.257295999
1.256383901
1.255471731
1.254559634
1.253647464
1.252736088
1.251825360
1.250913912
1.250002463
1.249091736
1.248181009
1.247269632
1.246359554
1.245448827
1.244538100
1.243628094
1.242718088
1.241808082
1.240898075
1.239989440
1.239080155
1.238170798
1.237261513
1.236352878
1.235443593
1.234534957
1.233627043
1.232718479
1.231810565
1.230901929
1.229994015
1.229087543
1.228179629
1.227271714
1.226364521
1.225457977
1.224550784
1.223644312
1.222737119
1.221831296
1.220924824
1.220018353
1.219113251
1.218206707
1.217300956
1.216395855
1.215490032
1.214585003
1.213680550
1.212774800
1.211869698
1.210966039
1.210060938
1.209157279
1.208252899
1.207348446
1.206444787
1.205541128
1.204638118
1.203734459
1.202831522
1.201927791
1.201024853
1.200122564
1.199218905
1.198317338
1.197414328
1.196512761
1.195609823
1.194708905
1.193806688
1.192905121
1.192004203
1.191102635
1.190201789
1.189300222
1.188400097
1.187498530
1.186598333
1.185698857
1.184798011
1.183897886
1.182997689
1.182098285
1.181198810
1.180298613
1.179399858
1.178501176
1.177601700
1.176702946
1.175804913
1.174905437
1.174007404
1.173109370
1.172211337
1.171312583
1.170415199
1.169517887
1.168620503
1.167722469
1.166825879
1.165929216
1.165032553
1.164135962
1.163238578
1.162341988
1.161446046
1.160550104
1.159654163
1.158757500
1.157862280
1.156966338
1.156071118
1.155176619
1.154281398
1.153386827
1.152491607
1.151596387
1.150701888
1.149807389
1.148913539
1.148019689
1.147125911
1.146232061
1.145338932
1.144445154
1.143552026
1.142658897
1.141765768
1.140873361
1.139980304
1.139087825
1.138195417
1.137303010
1.136411324
1.135518916
1.134627230
1.133735472
1.132843786
1.131952821
1.131062505
1.130171468
1.129280503
1.128389466
1.127498501
1.126608185
1.125717869
1.124827626
1.123938031
1.123048437
1.122158121
1.121268526
1.120378932
1.119489337
1.118601185
1.117712240
1.116823367
1.115934493
1.115046990
1.114158117
1.113269893
1.112381020
1.111494238
1.110606086
1.109717862
1.108830431
1.107943649
1.107056147
1.106169365
1.105282583
1.104395802
1.103509020
1.102622960
1.101736178
1.100850117
1.099964778
1.099078718
1.098192658
1.097307246
1.096421907
1.095537217
1.094651878
1.093767188
1.092881849
1.091997159
1.091113190
1.090227851
1.089344603
1.088459913
1.087576666
1.086691976
1.085809450
1.084925481
1.084042233
1.083158986
1.082276460
1.081392491
1.080510614
1.079627366
1.078745561
1.077863684
1.076980437
1.076099281
1.075216755
1.074335599
1.073454443
1.072571917
1.071691482
1.070809605
1.069929170
1.069048736
1.068166931
1.067287145
1.066406710
1.065526276
1.064646562
1.063766849
1.062886415
1.062006701
1.061127637
1.060248645
1.059368210
1.058489867
1.057610803
1.056732532
1.055852747
1.054975125
1.054096854
1.053218511
1.052340889
1.051461825
1.050584925
1.049707303
1.048829681
1.047952781
1.047075880
1.046197537
1.045321358
1.044444385
1.043568206
1.042692027
1.041815776
1.040939597
1.040063345
1.039187887
1.038310915
1.037435457
1.036560648
1.035685118
1.034810309
1.033934851
1.033060042
1.032185955
1.031311146
1.030436986
1.029562249
1.028688090
1.027814002
1.026940636
1.026066548
1.025193110
1.024319743
1.023446377
1.022574381
1.021700943
1.020828297
1.019955580
1.019082935
1.018210218
1.017338222
1.016465577
1.015593581
1.014722956
1.013851032
1.012979685
1.012107761
1.011236486
1.010365140
1.009495307
1.008624033
1.007753479
1.006882854
1.006012300
1.005142396
1.004272564
1.003401938
1.002532106
1.001662923
1.000793091
0.999923908
0.999055446
0.998186263
0.997316359
0.996447897
0.995579435
0.994710973
0.993842511
0.992974771
0.992106309
0.991239290
0.990370828
0.989503015
0.988635996
0.987768255
0.986900443
0.986034145
0.985167053
0.984300683
0.983433664
0.982568015
0.981700996
0.980835347
0.979968977
0.979102606
0.978236957
0.977371309
0.976506381
0.975640011
0.974775804
0.973910155
0.973045949
0.972181671
0.971316022
0.970452536
0.969587537
0.968723330
0.967859124
0.966995567
0.966132009
0.965267803
0.964404967
0.963540688
0.962677924
0.961815088
0.960951531
0.960089416
0.959227302
0.958363744
0.957501630
0.956640236
0.955777400
0.954915934
0.954054541
0.953191705
0.952331033
0.951469567
0.950608895
0.949746708
0.948886036
0.948026012
0.947165268
0.946303875
0.945443851
0.944583828
0.943723877
0.942864575
0.942003831
0.941144529
0.940285227
0.939425925
0.938566624
0.937707971
0.936848669
0.935989367
0.935130786
0.934272206
0.933414274
0.932555694
0.931697762
0.930839903
0.929981971
0.929124761
0.928266902
0.927409691
0.926552481
0.925695343
0.924838854
0.923980923
0.923124434
0.922267945
0.921412177
0.920555688
0.919699920
0.918844080
0.917988313
0.917132545
0.916276777
0.915420937
0.914565891
0.913710844
0.912855726
0.912000679
0.911145561
0.910291163
0.909437559
0.908583162
0.907728765
0.906874367
0.906020691
0.905167087
0.904312690
0.903460384
0.902606708
0.901753753
0.900900077
0.900047122
0.899194889
0.898342583
0.897489628
0.896637395
0.895785810
0.894933577
0.894081271
0.893229037
0.892378174
0.891526590
0.890675077
0.889824214
0.888972630
0.888121766
0.887271624
0.886420761
0.885569249
0.884719756
0.883868965
0.883018751
0.882169330
0.881319188
0.880470417
0.879620275
0.878770133
0.877921433
0.877071941
0.876223890
0.875374470
0.874526419
0.873676999
0.872828227
0.871980898
0.871132198
0.870284148
0.869436098
0.868588769
0.867740718
0.866893389
0.866046060
0.865199452
0.864352845
0.863504794
0.862658836
0.861811507
0.860965620
0.860118291
0.859273054
0.858427095
0.857580487
0.856735250
0.855890084
0.855043404
0.854198888
0.853353002
0.852507764
0.851663248
0.850818011
0.849973495
0.849128978
0.848285183
0.847439946
0.846596151
0.845752356
0.844907840
0.844064045
0.843220899
0.842377826
0.841534031
0.840690885
0.839847811
0.839005387
0.838162962
0.837319167
0.836476743
0.835634390
0.834792687
0.833950984
0.833109281
0.832266207
0.831424504
0.830583449
0.829741818
0.828900764
0.828059782
0.827218800
0.826378539
0.825537557
0.824697224
0.823855521
0.823015260
0.822175649
0.821335388
0.820495776
0.819655515
0.818815904
0.817977013
0.817137474
0.816297862
0.815458972
0.814620081
0.813781263
0.812942373
0.812104204
0.811265313
0.810428515
0.809590345
0.808752176
0.807914007
0.807076559
0.806238318
0.805400870
0.804563422
0.803726623
0.802889176
0.802053098
0.801216371
0.800379573
0.799542774
0.798706047
0.797869970
0.797034614
0.796198536
0.795362459
0.794526453
0.793691746
0.792856390
0.792020384
0.791184956
0.790351042
0.789515686
0.788681051
0.787845695
0.787012430
0.786177795
0.785343088
0.784509896
0.783675910
0.782841275
0.782008731
0.781174746
0.780340832
0.779508288
0.778675024
0.777841759
0.777009288
0.776176023
0.775344201
0.774511658
0.773678393
0.772847220
0.772014677
0.771183576
0.770351033
0.769519932
0.768688038
0.767857658
0.767025836
0.766195384
0.765363562
0.764533110
0.763702010
0.762872279
0.762041106
0.761211376
0.760380996
0.759551266
0.758720814
0.757891083
0.757061353
0.756232344
0.755403335
0.754573604
0.753744595
0.752916307
0.752086576
0.751258216
0.750429207
0.749600919
0.748773280
0.747944271
0.747116632
0.746289066
0.745460706
0.744633860
0.743806221
0.742979304
0.742151737
0.741324819
0.740497902
0.739671706
0.738844067
0.738017870
0.737191674
0.736365478
0.735538560
0.734713085
0.733887538
0.733062063
0.732236588
0.731410391
0.730584844
0.729760090
0.728935264
0.728110511
0.727285685
0.726460931
0.725636826
0.724811351
0.723987246
0.723163142
0.722339037
0.721515654
0.720691549
0.719868166
0.719044782
0.718221399
0.717398015
0.716575353
0.715752691
0.714929307
0.714107294
0.713284632
0.712461970
0.711639957
0.710817295
0.709995354
0.709173341
0.708352049
0.707530108
0.706708816
0.705886875
0.705065584
0.704245013
0.703424443
0.702603872
0.701782580
0.700962082
0.700141511
0.699321590
0.698501019
0.697681891
0.696862042
0.696042193
0.695222271
0.694402422
0.693582573
0.692764094
0.691944966
0.691125838
0.690306638
0.689488880
0.688669752
0.687851273
0.687032866
0.686215109
0.685397351
0.684578872
0.683761836
0.682944078
0.682125599
0.681307913
0.680491526
0.679674490
0.678856732
0.678040417
0.677223381
0.676407715
0.675590678
0.674773642
0.673958697
0.673141661
0.672326716
0.671510401
0.670694013
0.669879069
0.669063475
0.668248530
0.667432864
0.666618641
0.665803047
0.664988823
0.664173878
0.663359655
0.662544710
0.661731208
0.660916263
0.660102761
0.659288537
0.658474963
0.657661461
0.656847958
0.656035105
0.655221603
0.654408750
0.653595248
0.652783116
0.651970335
0.651157482
0.650345350
0.649532569
0.648720437
0.647909026
0.647096245
0.646284835
0.645473424
0.644661292
0.643850603
0.643039192
0.642228431
0.641417020
0.640606331
0.639795641
0.638984231
0.638174191
0.637364222
0.636554182
0.635744214
0.634933525
0.634124206
0.633314238
0.632504919
0.631695600
0.630885632
0.630076313
0.629267715
0.628459117
0.627650519
0.626841922
0.626032675
0.625224077
0.624416128
0.623607603
0.622799654
0.621992499
0.621184623
0.620376746
0.619569519
0.618762364
0.617955136
0.617147981
0.616340826
0.615534320
0.614727164
0.613920658
0.613114152
0.612307718
0.611501933
0.610695427
0.609889643
0.609083858
0.608278073
0.607472360
0.606667224
0.605861512
0.605056376
0.604251312
0.603446249
0.602641185
0.601836122
0.601032429
0.600228086
0.599423744
0.598619329
0.597814987
0.597011366
0.596208394
0.595404701
0.594601080
0.593797387
0.592993693
0.592191443
0.591388543
0.590584850
0.589781878
0.588978906
0.588177376
0.587375126
0.586572154
0.585770624
0.584968374
0.584166844
0.583364593
0.582563713
0.581761462
0.580959933
0.580159774
0.579358244
0.578556643
0.577756556
0.576955676
0.576155517
0.575354708
0.574553828
0.573754390
0.572954303
0.572154866
0.571354706
0.570554547
0.569755110
0.568955672
0.568156955
0.567356796
0.566558801
0.565759363
0.564960647
0.564161858
0.563363863
0.562564425
0.561767079
0.560968362
0.560170367
0.559372299
0.558574953
0.557776237
0.556979612
0.556182338
0.555384270
0.554587645
0.553790299
0.552993746
0.552197121
0.551399775
0.550603872
0.549806526
0.549010622
0.548214718
0.547418093
0.546622839
0.545827656
0.545031753
0.544235849
0.543440594
0.542645412
0.541850230
0.541054975
0.540260514
0.539465981
0.538670798
0.537876265
0.537082453
0.536287920
0.535493459
0.534699647
0.533905835
0.533112023
0.532318932
0.531525120
0.530731308
0.529938217
0.529145126
0.528352035
0.527559666
0.526767296
0.525974133
0.525181043
0.524388673
0.523596953
0.522804583
0.522012935
0.521221215
0.520429494
0.519637846
0.518846126
0.518055126
0.517263478
0.516472479
0.515681480
0.514890553
0.514100275
0.513309276
0.512518998
0.511728720
0.510938442
0.510148164
0.509357887
0.508568258
0.507777980
0.506988423
0.506198867
0.505410680
0.504621124
0.503831495
0.503042660
0.502253752
0.501464917
0.500676009
0.499887174
0.499099709
0.498311523
0.497523409
0.496735222
0.495947036
0.495159571
0.494372106
0.493584641
0.492796455
0.492008990
0.491222967
0.490435502
0.489648759
0.488861294
0.488075199
0.487288455
0.486502433
0.485716338
0.484930316
0.484143572
0.483358199
0.482572176
0.481786803
0.481001430
0.480216128
0.479430034
0.478645382
0.477860080
0.477076077
0.476290776
0.475505403
0.474721472
0.473936820
0.473153610
0.472368958
0.471584306
0.470801024
0.470016444
0.469233163
0.468449232
0.467666671
0.466882741
0.466100252
0.465316321
0.464533761
0.463750551
0.462968712
0.462185430
0.461403663
0.460621824
0.459838542
0.459057424
0.458274936
0.457493097
0.456711979
0.455929418
0.455148300
0.454366461
0.453586065
0.452804947
0.452023829
0.451242711
0.450462963
0.449681124
0.448901448
0.448120980
0.447340583
0.446560186
0.445780439
0.445001412
0.444221016
0.443441340
0.442662314
0.441883288
0.441102891
0.440323865
0.439545559
0.438766533
0.437986858
0.437208697
0.436430392
0.435652087
0.434874503
0.434096198
0.433317172
0.432539588
0.431761932
0.430984348
0.430206764
0.429429830
0.428652246
0.427875383
0.427098448
0.426320865
0.425543930
0.424767067
0.423990854
0.423214713
0.422438499
0.421662286
0.420886072
0.420109931
0.419334439
0.418558225
0.417782733
0.417007241
0.416231749
0.415456978
0.414681486
0.413906715
0.413131944
0.412357101
0.411582330
0.410808280
0.410034159
0.409260109
0.408485338
0.407711216
0.406937167
0.406163766
0.405389716
0.404617037
0.403843637
0.403070308
0.402296908
0.401523507
0.400750179
0.399978221
0.399205541
0.398432862
0.397660183
0.396887503
0.396116267
0.395343587
0.394571629
0.393799671
0.393028362
0.392256404
0.391485168
0.390713859
0.389942622
0.389171385
0.388400798
0.387629561
0.386858252
0.386088385
0.385317870
0.384547282
0.383777416
0.383006900
0.382236313
0.381467168
0.380696652
0.379927507
0.379157641
0.378387774
0.377619350
0.376849484
0.376080988
0.375311843
0.374543419
0.373774274
0.373005850
0.372237354
0.371469651
0.370700506
0.369932731
0.369164307
0.368397254
0.367628830
0.366861776
0.366093353
0.365326299
0.364558596
0.363792264
0.363025211
0.362258157
0.361491104
0.360724122
0.359957790
0.359192107
0.358425126
0.357658793
0.356893110
0.356126778
0.355361167
0.354595556
0.353829945
0.353064262
0.352299372
0.351533040
0.350768799
0.350003909
