corrn_curve_quartic
1.15540722
1.15501093
1.15461528
1.15422028
1.15382591
1.15343218
1.15303910
1.15264664
1.15225483
1.15186364
1.15147310
1.15108318
1.15069389
1.15030524
1.14991721
1.14952981
1.14914304
1.14875689
1.14837136
1.14798646
1.14760218
1.14721852
1.14683548
1.14645306
1.14607126
1.14569007
1.14530949
1.14492953
1.14455018
1.14417145
1.14379332
1.14341580
1.14303889
1.14266259
1.14228689
1.14191180
1.14153731
1.14116342
1.14079014
1.14041745
1.14004536
1.13967387
1.13930298
1.13893268
1.13856298
1.13819386
1.13782535
1.13745742
1.13709008
1.13672333
1.13635717
1.13599159
1.13562660
1.13526220
1.13489837
1.13453513
1.13417247
1.13381039
1.13344889
1.13308796
1.13272761
1.13236784
1.13200864
1.13165002
1.13129196
1.13093448
1.13057756
1.13022122
1.12986544
1.12951023
1.12915558
1.12880150
1.12844798
1.12809503
1.12774263
1.12739080
1.12703952
1.12668880
1.12633864
1.12598903
1.12563998
1.12529148
1.12494353
1.12459613
1.12424928
1.12390299
1.12355724
1.12321203
1.12286738
1.12252326
1.12217970
1.12183667
1.12149418
1.12115224
1.12081083
1.12046997
1.12012963
1.11978984
1.11945058
1.11911186
1.11877366
1.11843600
1.11809887
1.11776227
1.11742620
1.11709065
1.11675564
1.11642114
1.11608718
1.11575373
1.11542081
1.11508841
1.11475653
1.11442516
1.11409432
1.11376399
1.11343418
1.11310488
1.11277610
1.11244783
1.11212007
1.11179282
1.11146609
1.11113986
1.11081414
1.11048892
1.11016421
1.10984001
1.10951630
1.10919310
1.10887041
1.10854821
1.10822651
1.10790531
1.10758461
1.10726440
1.10694469
1.10662547
1.10630675
1.10598852
1.10567077
1.10535352
1.10503676
1.10472049
1.10440470
1.10408940
1.10377458
1.10346025
1.10314640
1.10283304
1.10252015
1.10220774
1.10189581
1.10158437
1.10127339
1.10096290
1.10065287
1.10034333
1.10003425
1.09972565
1.09941751
1.09910985
1.09880266
1.09849593
1.09818967
1.09788388
1.09757855
1.09727368
1.09696928
1.09666534
1.09636186
1.09605884
1.09575628
1.09545418
1.09515254
1.09485135
1.09455061
1.09425033
1.09395050
1.09365113
1.09335220
1.09305373
1.09275570
1.09245812
1.09216099
1.09186431
1.09156807
1.09127228
1.09097692
1.09068201
1.09038755
1.09009352
1.08979993
1.08950678
1.08921407
1.08892179
1.08862995
1.08833854
1.08804757
1.08775703
1.08746692
1.08717724
1.08688799
1.08659917
1.08631078
1.08602282
1.08573528
1.08544816
1.08516147
1.08487521
1.08458936
1.08430394
1.08401893
1.08373435
1.08345018
1.08316643
1.08288310
1.08260018
1.08231768
1.08203559
1.08175391
1.08147265
1.08119179
1.08091135
1.08063131
1.08035168
1.08007246
1.07979365
1.07951524
1.07923723
1.07895963
1.07868243
1.07840563
1.07812923
1.07785323
1.07757763
1.07730243
1.07702763
1.07675322
1.07647920
1.07620558
1.07593235
1.07565952
1.07538707
1.07511502
1.07484335
1.07457208
1.07430119
1.07403069
1.07376057
1.07349084
1.07322149
1.07295253
1.07268394
1.07241574
1.07214792
1.07188048
1.07161342
1.07134673
1.07108042
1.07081449
1.07054893
1.07028375
1.07001894
1.06975450
1.06949043
1.06922673
1.06896340
1.06870044
1.06843785
1.06817563
1.06791377
1.06765227
1.06739115
1.06713038
1.06686997
1.06660993
1.06635025
1.06609093
1.06583196
1.06557336
1.06531511
1.06505722
1.06479968
1.06454250
1.06428567
1.06402919
1.06377306
1.06351729
1.06326187
1.06300679
1.06275206
1.06249769
1.06224365
1.06198997
1.06173662
1.06148362
1.06123097
1.06097866
1.06072668
1.06047505
1.06022376
1.05997281
1.05972219
1.05947191
1.05922197
1.05897237
1.05872309
1.05847416
1.05822555
1.05797728
1.05772933
1.05748172
1.05723444
1.05698748
1.05674085
1.05649455
1.05624858
1.05600293
1.05575760
1.05551260
1.05526792
1.05502356
1.05477952
1.05453581
1.05429241
1.05404933
1.05380657
1.05356412
1.05332199
1.05308017
1.05283867
1.05259749
1.05235661
1.05211605
1.05187579
1.05163585
1.05139622
1.05115689
1.05091787
1.05067916
1.05044076
1.05020266
1.04996486
1.04972737
1.04949018
1.04925329
1.04901670
1.04878041
1.04854442
1.04830873
1.04807334
1.04783824
1.04760344
1.04736894
1.04713473
1.04690081
1.04666718
1.04643385
1.04620081
1.04596806
1.04573559
1.04550342
1.04527154
1.04503994
1.04480862
1.04457760
1.04434686
1.04411640
1.04388622
1.04365633
1.04342672
1.04319738
1.04296833
1.04273956
1.04251106
1.04228285
1.04205491
1.04182724
1.04159985
1.04137274
1.04114590
1.04091933
1.04069303
1.04046700
1.04024125
1.04001576
1.03979054
1.03956559
1.03934091
1.03911649
1.03889234
1.03866845
1.03844483
1.03822147
1.03799837
1.03777554
1.03755296
1.03733065
1.03710860
1.03688680
1.03666526
1.03644398
1.03622295
1.03600218
1.03578167
1.03556141
1.03534140
1.03512164
1.03490214
1.03468288
1.03446388
1.03424513
1.03402662
1.03380836
1.03359035
1.03337259
1.03315507
1.03293779
1.03272076
1.03250397
1.03228743
1.03207112
1.03185506
1.03163924
1.03142366
1.03120831
1.03099321
1.03077834
1.03056370
1.03034931
1.03013514
1.02992122
1.02970752
1.02949406
1.02928083
1.02906783
1.02885506
1.02864252
1.02843021
1.02821813
1.02800627
1.02779465
1.02758324
1.02737207
1.02716111
1.02695038
1.02673988
1.02652960
1.02631953
1.02610969
1.02590007
1.02569067
1.02548149
1.02527252
1.02506377
1.02485524
1.02464692
1.02443882
1.02423094
1.02402326
1.02381580
1.02360855
1.02340151
1.02319469
1.02298807
1.02278166
1.02257546
1.02236947
1.02216368
1.02195811
1.02175273
1.02154756
1.02134260
1.02113784
1.02093328
1.02072892
1.02052477
1.02032081
1.02011706
1.01991350
1.01971015
1.01950699
1.01930402
1.01910126
1.01889869
1.01869631
1.01849413
1.01829214
1.01809034
1.01788874
1.01768733
1.01748610
1.01728507
1.01708423
1.01688358
1.01668311
1.01648283
1.01628274
1.01608283
1.01588311
1.01568357
1.01548422
1.01528504
1.01508606
1.01488725
1.01468862
1.01449018
1.01429191
1.01409382
1.01389591
1.01369818
1.01350062
1.01330324
1.01310604
1.01290901
1.01271215
1.01251547
1.01231896
1.01212263
1.01192646
1.01173046
1.01153464
1.01133898
1.01114349
1.01094817
1.01075302
1.01055803
1.01036321
1.01016856
1.00997407
1.00977974
1.00958558
1.00939158
1.00919774
1.00900406
1.00881054
1.00861718
1.00842398
1.00823094
1.00803806
1.00784533
1.00765277
1.00746035
1.00726810
1.00707599
1.00688404
1.00669225
1.00650060
1.00630911
1.00611777
1.00592658
1.00573554
1.00554465
1.00535391
1.00516331
1.00497287
1.00478256
1.00459241
1.00440240
1.00421254
1.00402282
1.00383324
1.00364380
1.00345451
1.00326536
1.00307635
1.00288748
1.00269875
1.00251016
1.00232171
1.00213339
1.00194521
1.00175717
1.00156926
1.00138149
1.00119385
1.00100635
1.00081898
1.00063174
1.00044463
1.00025766
1.00007081
0.99988410
0.99969751
0.99951105
0.99932472
0.99913852
0.99895245
0.99876650
0.99858067
0.99839498
0.99820940
0.99802395
0.99783862
0.99765342
0.99746833
0.99728337
0.99709853
0.99691381
0.99672920
0.99654472
0.99636035
0.99617610
0.99599197
0.99580795
0.99562405
0.99544027
0.99525660
0.99507304
0.99488959
0.99470626
0.99452304
0.99433993
0.99415693
0.99397404
0.99379126
0.99360859
0.99342603
0.99324357
0.99306123
0.99287898
0.99269685
0.99251482
0.99233289
0.99215107
0.99196935
0.99178773
0.99160622
0.99142480
0.99124349
0.99106228
0.99088117
0.99070015
0.99051924
0.99033842
0.99015770
0.98997708
0.98979655
0.98961612
0.98943578
0.98925554
0.98907539
0.98889534
0.98871537
0.98853550
0.98835572
0.98817604
0.98799644
0.98781693
0.98763751
0.98745818
0.98727893
0.98709978
0.98692071
0.98674172
0.98656282
0.98638401
0.98620528
0.98602663
0.98584807
0.98566959
0.98549119
0.98531288
0.98513464
0.98495649
0.98477841
0.98460041
0.98442250
0.98424466
0.98406689
0.98388921
0.98371160
0.98353406
0.98335660
0.98317922
0.98300191
0.98282467
0.98264751
0.98247041
0.98229339
0.98211644
0.98193956
0.98176275
0.98158601
0.98140934
0.98123274
0.98105621
0.98087974
0.98070334
0.98052700
0.98035073
0.98017452
0.97999838
0.97982231
0.97964629
0.97947034
0.97929445
0.97911862
0.97894286
0.97876715
0.97859151
0.97841592
0.97824039
0.97806492
0.97788951
0.97771415
0.97753885
0.97736361
0.97718842
0.97701329
0.97683821
0.97666319
0.97648822
0.97631330
0.97613843
0.97596362
0.97578885
0.97561414
0.97543948
0.97526486
0.97509030
0.97491578
0.97474131
0.97456689
0.97439252
0.97421819
0.97404390
0.97386967
0.97369547
0.97352132
0.97334722
0.97317315
0.97299913
0.97282516
0.97265122
0.97247732
0.97230347
0.97212965
0.97195587
0.97178213
0.97160843
0.97143477
0.97126115
0.97108756
0.97091400
0.97074049
0.97056700
0.97039356
0.97022014
0.97004676
0.96987341
0.96970010
0.96952682
0.96935356
0.96918034
0.96900715
0.96883399
0.96866086
0.96848776
0.96831468
0.96814163
0.96796861
0.96779562
0.96762265
0.96744971
0.96727679
0.96710390
0.96693103
0.96675819
0.96658537
0.96641257
0.96623979
0.96606704
0.96589430
0.96572159
0.96554890
0.96537622
0.96520357
0.96503093
0.96485831
0.96468571
0.96451312
0.96434056
0.96416800
0.96399547
0.96382294
0.96365044
0.96347794
0.96330546
0.96313300
0.96296054
0.96278810
0.96261567
0.96244325
0.96227084
0.96209844
0.96192605
0.96175366
0.96158129
0.96140893
0.96123657
0.96106422
0.96089187
0.96071953
0.96054720
0.96037487
0.96020255
0.96003023
0.95985791
0.95968560
0.95951329
0.95934098
0.95916867
0.95899637
0.95882406
0.95865176
0.95847945
0.95830714
0.95813484
0.95796253
0.95779021
0.95761790
0.95744558
0.95727326
0.95710093
0.95692860
0.95675627
0.95658392
0.95641158
0.95623922
0.95606686
0.95589449
0.95572211
0.95554972
0.95537733
0.95520492
0.95503251
0.95486008
0.95468765
0.95451520
0.95434274
0.95417027
0.95399779
0.95382529
0.95365278
0.95348025
0.95330771
0.95313515
0.95296258
0.95278999
0.95261739
0.95244477
0.95227213
0.95209947
0.95192680
0.95175410
0.95158139
0.95140866
0.95123590
0.95106313
0.95089033
0.95071752
0.95054468
0.95037182
0.95019893
0.95002602
0.94985309
0.94968013
0.94950715
0.94933414
0.94916111
0.94898805
0.94881497
0.94864185
0.94846871
0.94829554
0.94812235
0.94794912
0.94777586
0.94760258
0.94742926
0.94725592
0.94708254
0.94690913
0.94673569
0.94656221
0.94638871
0.94621517
0.94604159
0.94586798
0.94569434
0.94552066
0.94534694
0.94517319
0.94499941
0.94482558
0.94465172
0.94447782
0.94430388
0.94412990
0.94395589
0.94378183
0.94360773
0.94343360
0.94325942
0.94308520
0.94291094
0.94273664
0.94256229
0.94238790
0.94221347
0.94203899
0.94186447
0.94168990
0.94151529
0.94134064
0.94116593
0.94099118
0.94081638
0.94064154
0.94046665
0.94029171
0.94011672
0.93994168
0.93976659
0.93959145
0.93941626
0.93924102
0.93906573
0.93889038
0.93871499
0.93853954
0.93836404
0.93818848
0.93801287
0.93783721
0.93766149
0.93748572
0.93730989
0.93713401
0.93695807
0.93678207
0.93660601
0.93642990
0.93625373
0.93607750
0.93590121
0.93572486
0.93554846
0.93537199
0.93519546
0.93501887
0.93484222
0.93466551
0.93448873
0.93431190
0.93413499
0.93395803
0.93378100
0.93360391
0.93342675
0.93324953
0.93307224
0.93289489
0.93271747
0.93253998
0.93236243
0.93218481
0.93200712
0.93182936
0.93165153
0.93147364
0.93129567
0.93111763
0.93093953
0.93076135
0.93058310
0.93040478
0.93022639
0.93004793
0.92986939
0.92969078
0.92951209
0.92933334
0.92915450
0.92897560
0.92879661
0.92861756
0.92843842
0.92825921
0.92807992
0.92790056
0.92772112
0.92754160
0.92736200
0.92718232
0.92700256
0.92682273
0.92664281
0.92646281
0.92628274
0.92610258
0.92592234
0.92574202
0.92556161
0.92538113
0.92520056
0.92501990
0.92483917
0.92465834
0.92447744
0.92429645
0.92411537
0.92393421
0.92375296
0.92357162
0.92339020
0.92320869
0.92302709
0.92284541
0.92266364
0.92248177
0.92229982
0.92211778
0.92193565
0.92175343
0.92157111
0.92138871
0.92120621
0.92102363
0.92084095
0.92065818
0.92047531
0.92029235
0.92010930
0.91992615
0.91974291
0.91955958
0.91937615
0.91919262
0.91900900
0.91882528
0.91864146
0.91845755
0.91827354
0.91808943
0.91790522
0.91772091
0.91753651
0.91735201
0.91716740
0.91698270
0.91679789
0.91661299
0.91642798
0.91624288
0.91605767
0.91587235
0.91568694
0.91550142
0.91531580
0.91513008
0.91494425
0.91475831
0.91457227
0.91438613
0.91419988
0.91401353
0.91382706
0.91364050
0.91345382
0.91326704
0.91308015
0.91289315
0.91270604
0.91251883
0.91233150
0.91214407
0.91195652
0.91176887
0.91158111
0.91139323
0.91120524
0.91101714
0.91082893
0.91064061
0.91045217
0.91026362
0.91007496
0.90988618
0.90969729
0.90950829
0.90931917
0.90912993
0.90894058
0.90875112
0.90856153
0.90837184
0.90818202
0.90799209
0.90780203
0.90761187
0.90742158
0.90723117
0.90704065
0.90685000
0.90665924
0.90646835
0.90627735
0.90608622
0.90589498
0.90570361
0.90551212
0.90532051
0.90512878
0.90493692
0.90474494
0.90455284
0.90436061
0.90416826
0.90397578
0.90378318
0.90359045
0.90339760
0.90320463
0.90301152
0.90281829
0.90262494
0.90243145
0.90223784
0.90204410
0.90185023
0.90165624
0.90146211
0.90126786
0.90107347
0.90087896
0.90068432
0.90048954
0.90029464
0.90009960
0.89990443
0.89970913
0.89951370
0.89931814
0.89912244
0.89892661
0.89873065
0.89853455
0.89833832
0.89814195
0.89794545
0.89774881
0.89755204
0.89735514
0.89715809
0.89696091
0.89676360
0.89656614
0.89636855
0.89617082
0.89597295
0.89577495
0.89557681
0.89537852
0.89518010
0.89498154
0.89478284
0.89458399
0.89438501
0.89418589
0.89398662
0.89378721
0.89358767
0.89338798
0.89318814
0.89298817
0.89278805
0.89258778
0.89238738
0.89218683
0.89198613
0.89178529
0.89158431
0.89138317
0.89118190
0.89098048
0.89077891
0.89057719
0.89037533
0.89017332
0.88997117
0.88976886
0.88956641
0.88936381
0.88916106
0.88895816
0.88875511
0.88855191
0.88834856
0.88814506
0.88794141
0.88773761
0.88753366
0.88732956
0.88712530
0.88692089
0.88671633
0.88651162
0.88630676
0.88610174
0.88589656
0.88569124
0.88548576
0.88528012
0.88507433
0.88486838
0.88466228
0.88445602
0.88424961
0.88404304
0.88383631
0.88362943
0.88342239
0.88321519
0.88300783
0.88280032
0.88259264
0.88238481
0.88217682
0.88196867
0.88176036
0.88155189
0.88134326
0.88113446
0.88092551
0.88071640
0.88050712
0.88029769
0.88008809
0.87987833
0.87966840
0.87945831
0.87924806
0.87903765
0.87882707
0.87861633
0.87840542
0.87819435
0.87798312
0.87777171
0.87756015
0.87734841
0.87713652
0.87692445
0.87671222
0.87649982
0.87628725
0.87607452
0.87586161
0.87564854
0.87543531
0.87522190
0.87500832
0.87479457
0.87458066
0.87436657
0.87415232
0.87393789
0.87372329
0.87350853
0.87329359
0.87307848
0.87286319
0.87264774
0.87243211
0.87221631
0.87200034
0.87178419
0.87156787
0.87135138
0.87113471
0.87091787
0.87070085
0.87048366
0.87026629
0.87004875
0.86983103
0.86961313
0.86939506
0.86917682
0.86895839
0.86873979
0.86852101
0.86830205
0.86808292
0.86786360
0.86764411
0.86742444
0.86720459
0.86698456
0.86676435
0.86654396
0.86632339
0.86610264
0.86588171
0.86566060
0.86543931
0.86521784
0.86499618
0.86477434
0.86455232
0.86433012
0.86410773
0.86388516
0.86366241
0.86343947
0.86321635
0.86299305
0.86276956
0.86254588
0.86232203
0.86209798
0.86187375
0.86164933
0.86142473
0.86119994
0.86097497
0.86074981
0.86052446
0.86029892
0.86007320
0.85984729
0.85962118
0.85939490
0.85916842
0.85894175
0.85871490
0.85848785
0.85826061
0.85803319
0.85780557
0.85757777
0.85734977
0.85712158
0.85689320
0.85666463
0.85643587
0.85620691
0.85597776
0.85574842
0.85551889
0.85528916
0.85505924
0.85482913
0.85459882
0.85436832
0.85413762
0.85390673
0.85367565
0.85344437
0.85321289
0.85298122
0.85274935
0.85251728
0.85228502
0.85205257
0.85181991
0.85158706
0.85135401
0.85112076
0.85088732
0.85065367
0.85041983
0.85018579
0.84995155
0.84971711
0.84948247
0.84924763
0.84901260
0.84877736
0.84854192
0.84830628
0.84807044
0.84783440
0.84759815
0.84736171
0.84712506
0.84688821
0.84665116
0.84641390
0.84617645
0.84593879
0.84570092
0.84546285
0.84522458
0.84498611
0.84474743
0.84450854
0.84426945
0.84403016
0.84379065
0.84355095
0.84331104
0.84307092
0.84283059
0.84259006
0.84234932
0.84210838
0.84186723
0.84162587
0.84138430
0.84114252
0.84090054
0.84065834
0.84041594
0.84017333
0.83993051
0.83968748
0.83944424
0.83920079
0.83895714
0.83871327
0.83846919
0.83822489
0.83798039
0.83773568
0.83749075
0.83724561
0.83700027
0.83675470
0.83650893
0.83626294
0.83601674
0.83577033
0.83552370
0.83527686
0.83502981
0.83478254
0.83453506
0.83428736
0.83403945
0.83379132
0.83354298
0.83329442
0.83304564
0.83279665
0.83254744
0.83229802
0.83204838
0.83179853
0.83154845
0.83129816
0.83104765
0.83079692
0.83054598
0.83029482
0.83004343
0.82979183
0.82954001
0.82928797
0.82903572
0.82878324
0.82853054
0.82827762
0.82802448
0.82777112
0.82751754
0.82726374
0.82700972
0.82675548
0.82650101
0.82624633
0.82599142
0.82573628
0.82548093
0.82522535
0.82496955
0.82471353
0.82445728
0.82420081
0.82394412
0.82368720
0.82343006
0.82317269
0.82291510
0.82265728
0.82239924
0.82214097
0.82188248
0.82162376
0.82136481
0.82110564
0.82084624
0.82058661
0.82032676
0.82006668
0.81980637
0.81954584
0.81928508
0.81902409
0.81876287
0.81850142
0.81823974
0.81797784
0.81771571
0.81745334
0.81719075
0.81692793
0.81666487
0.81640159
0.81613808
0.81587433
0.81561036
0.81534615
0.81508171
0.81481705
0.81455214
0.81428701
0.81402165
0.81375605
0.81349022
0.81322416
0.81295786
0.81269134
0.81242457
0.81215758
0.81189035
0.81162289
0.81135519
0.81108726
0.81081909
0.81055069
0.81028205
0.81001318
0.80974407
0.80947473
0.80920515
0.80893534
0.80866529
0.80839500
0.80812447
0.80785371
0.80758271
0.80731148
0.80704000
0.80676829
0.80649634
0.80622416
0.80595173
0.80567907
0.80540616
0.80513302
0.80485964
0.80458602
0.80431216
0.80403806
0.80376372
0.80348914
0.80321432
0.80293926
0.80266396
0.80238842
0.80211263
0.80183661
0.80156034
0.80128383
0.80100708
0.80073009
0.80045285
0.80017538
0.79989765
0.79961969
0.79934148
0.79906303
0.79878434
0.79850540
0.79822622
0.79794680
0.79766712
0.79738721
0.79710705
0.79682665
0.79654600
0.79626510
0.79598396
0.79570257
0.79542094
0.79513906
0.79485694
0.79457457
0.79429195
0.79400908
0.79372597
0.79344261
0.79315901
0.79287515
0.79259105
0.79230670
