-1115.339135839485
-1113.309737341139
-1111.280767490353
-1109.252226153779
-1107.224113198108
-1105.196428490105
-1103.169171896581
-1101.142343284405
-1099.115942520493
-1097.089969471833
-1095.064424005447
-1093.03930598843
-1091.014615287921
-1088.990351771125
-1086.966515305284
-1084.943105757724
-1082.920122995792
-1080.897566886913
-1078.875437298564
-1076.853734098267
-1074.83245715361
-1072.811606332227
-1070.791181501819
-1068.771182530124
-1066.75160928495
-1064.732461634158
-1062.713739445652
-1060.695442587399
-1058.677570927426
-1056.660124333811
-1054.64310267468
-1052.626505818215
-1050.610333632666
-1048.594585986318
-1046.579262747533
-1044.564363784696
-1042.54988896628
-1040.53583816079
-1038.52221123679
-1036.50900806291
-1034.49622850782
-1032.483872440253
-1030.471939728991
-1028.46043024287
-1026.449343850787
-1024.438680421683
-1022.428439824566
-1020.41862192849
-1018.409226602557
-1016.400253715938
-1014.391703137844
-1012.38357473755
-1010.375868384385
-1008.368583947723
-1006.361721296993
-1004.355280301693
-1002.349260831358
-1000.343662755582
-998.338485944019
-996.333730266365
-994.329395592377
-992.3254817918726
-990.3219887347041
-988.3189162908021
-986.3162643301273
-984.31403272271
-982.312221338628
-980.3108300480068
-978.3098587210458
-976.3093072279704
-974.3091754390795
-972.3094632247157
-970.3101704552821
-968.3112970012338
-966.3128427330738
-964.3148075213613
-962.3171912367078
-960.319993749785
-958.3232149313085
-956.3268546520544
-954.3309127828421
-952.3353891945605
-950.3402837581377
-948.3455963445533
-946.3513268248569
-944.3574750701324
-942.3640409515332
-940.3710243402431
-938.378425107524
-936.386243124681
-934.3944782630671
-932.4031303940914
-930.4121993892155
-928.4216851199612
-926.4315874578898
-924.4419062746272
-922.4526414418474
-920.4637928312761
-918.4753603146914
-916.4873437639276
-914.4997430508708
-912.512558047451
-910.5257886256715
-908.5394346575658
-906.5534960152289
-904.5679725708114
-902.5828641965163
-900.5981707645985
-898.613892147352
-896.6300282171446
-894.6465788463873
-892.6635439075346
-890.680923273106
-888.698716815673
-886.7169244078507
-884.7355459223145
-882.7545812317835
-880.7740302090375
-878.7938927269038
-876.8141686582662
-874.834857876052
-872.8559602532489
-870.8774756629014
-868.8994039780882
-866.9217450719578
-864.9444988176975
-862.9676650885598
-860.9912437578319
-859.0152346988743
-857.0396377850786
-855.0644528899053
-853.0896798868539
-851.1153186494848
-849.1413690514061
-847.1678309662734
-845.1947042678034
-843.2219888297558
-841.2496845259512
-839.2777912302535
-837.3063088165828
-835.3352371589118
-833.3645761312517
-831.3943256076876
-829.4244854623436
-827.4550555693871
-825.4860358030552
-823.5174260376237
-821.549226147425
-819.5814360068346
-817.6140554902976
-815.6470844722938
-813.6805228273549
-811.7143704300736
-809.7486271550899
-807.7832928770918
-805.8183674708192
-803.8538508110685
-801.889742772675
-799.9260432305479
-797.9627520596222
-795.9998691348981
-794.0373943314191
-792.0753275242938
-790.1136685886656
-788.1524173997383
-786.1915738327594
-784.2311377630413
-782.271109065931
-780.311487616832
-778.3522732912043
-776.3934659645511
-774.4350655124362
-772.4770718104584
-770.5194847342856
-768.5623041596207
-766.6055299622269
-764.6491620179156
-762.6932002025455
-760.7376443920319
-758.7824944623335
-756.8277502894692
-754.8734117495022
-752.9194787185426
-750.9659510727615
-749.012828688369
-747.0601114416319
-745.1077992088684
-743.155891866445
-741.2043892907776
-739.2532913583368
-737.3025979456319
-735.3523089292349
-733.4024241857704
-731.4529435919039
-729.5038670243571
-727.5551943598823
-725.6069254753141
-723.659060247522
-721.7115985534228
-719.7645402699793
-717.8178852742167
-715.8716334432062
-713.925784654062
-711.9803387839636
-710.0352957101186
-708.0906553097975
-706.1464174603227
-704.2025820390668
-702.2591489234497
-700.3161179909307
-698.3734891190317
-696.4312621853311
-694.4894370674356
-692.5480136430167
-690.6069917897938
-688.6663713855339
-686.7261523080476
-684.7863344352102
-682.8469176449362
-680.9079018151834
-678.9692868239749
-677.0310725493791
-675.0932588695013
-673.155845662501
-671.2188328066005
-669.2822201800701
-667.3460076612081
-665.4101951283843
-663.4747824600012
-661.5397695345304
-659.6051562304675
-657.6709424263821
-655.7371280008803
-653.8037128326138
-651.8706968002908
-649.9380797826715
-648.0058616585593
-646.0740423068056
-644.1426216063114
-642.2115994360387
-640.2809756749688
-638.3507502021783
-636.420922896742
-634.4914936378234
-632.5624623046183
-630.6338287763664
-628.7055929323653
-626.7777546519523
-624.8503138145313
-622.9232702995394
-620.9966239864714
-619.0703747548532
-617.1445224842842
-615.2190670543961
-613.294008344875
-611.3693462354548
-609.4450806059149
-607.5212113360951
-605.5977383058724
-603.6746613951693
-601.7519804839625
-599.8296954522848
-597.9078061802128
-595.9863125478511
-594.0652144353887
-592.1445117230365
-590.2242042910683
-588.3042920197925
-586.3847747895782
-584.4656524808421
-582.5469249740316
-580.6285921496719
-578.7106538883143
-576.7931100705598
-574.8759605770683
-572.9592052885449
-571.0428440857339
-569.1268768494382
-567.2113034605039
-565.2961237998248
-563.3813377483406
-561.4669451870533
-559.5529459969891
-557.6393400592351
-555.7261272549408
-553.8133074652778
-551.9008805714783
-549.988846454822
-548.0772049966344
-546.1659560782886
-544.2550995812118
-542.3446353868791
-540.4345633767959
-538.5248834325349
-536.615595435701
-534.706699267971
-532.7981948110411
-530.8900819466726
-528.9823605566678
-527.0750305228812
-525.1680917272108
-523.2615440516021
-521.3553873780482
-519.4496215885927
-517.5442465653302
-515.6392621903888
-513.7346683459546
-511.830464914266
-509.926651777598
-508.0232288182779
-506.1201959186764
-504.2175529612202
-502.3152998283732
-500.4134364026513
-498.5119625666246
-496.6108782028934
-494.7101831941233
-492.8098774230122
-490.9099607723144
-489.0104331248301
-487.1112943634066
-485.2125443709351
-483.3141830303477
-481.4162102246525
-479.5186258368641
-477.621429750075
-475.7246218474063
-473.8282020120416
-471.9321701271949
-470.0365260761367
-468.1412697421874
-466.2464010087041
-464.3519197591027
-462.4578258768312
-460.564119245401
-458.6707997483578
-456.7778672692996
-454.8853216918719
-452.993162899755
-451.1013907766963
-449.2100052064804
-447.3190060729306
-445.4283932599202
-443.5381666513831
-441.6483261312836
-439.7588715836362
-437.869802892509
-435.9811199420031
-434.0928226162868
-432.2049107995497
-430.3173843760448
-428.4302432300616
-426.5434872459547
-424.6571163081026
-422.7711303009382
-420.8855291089396
-419.0003126166436
-417.1154807086174
-415.2310332694803
-413.3469701838948
-411.4632913365755
-409.5799966122781
-407.6970858958064
-405.8145590720135
-403.932416025792
-402.050656642082
-400.1692808058735
-398.2882884021998
-396.4076793161443
-394.5274534328312
-392.6476106374285
-390.7681508151517
-388.8890738512748
-387.0103796311001
-385.1320680399928
-383.254138963333
-381.3765922865923
-379.4994278952485
-377.6226456748424
-375.7462455109603
-373.870227289234
-371.9945908953366
-370.1193362149889
-368.2444631339594
-366.3699715380619
-364.4958613131517
-362.6221323451383
-360.7487845199591
-358.8758177236191
-357.0032318421599
-355.1310267616644
-353.2592023682609
-351.3877585481343
-349.5166951874976
-347.6460121726267
-345.7757093898277
-343.9057867254611
-342.036244065935
-340.1670812976944
-338.2982983072365
-336.4298949810971
-334.5618712058645
-332.6942268681637
-330.826961854676
-328.9600760521174
-327.0935693472582
-325.2274416269034
-323.3616927779144
-321.4963226871891
-319.6313312416759
-317.7667183283618
-315.9024838342859
-314.0386276465285
-312.1751496522156
-310.3120497385207
-308.4493277926543
-306.586983701881
-304.7250173535045
-302.8634286348763
-301.0022174333954
-299.1413836364934
-297.2809271316562
-295.420847806426
-293.5611455483645
-291.7018202450964
-289.8428717842852
-287.9843000536424
-286.1261049409139
-284.2682863339
-282.4108441204509
-280.5537781884449
-278.6970884258145
-276.8407747205399
-274.9848369606382
-273.1292750341764
-271.2740888292649
-269.4192782340551
-267.5648431367463
-265.7107834255876
-263.8570989888585
-262.0037897148992
-260.1508554920737
-258.2982962088154
-256.4461117535816
-254.5943020148818
-252.7428668812749
-250.8918062413571
-249.0411199837592
-247.1908079971791
-245.340870170343
-243.491306392027
-241.6421165510481
-239.7933005362672
-237.9448582365924
-236.0967895409754
-234.2490943384114
-232.4017725179386
-230.5548239686455
-228.708248579644
-226.8620462401202
-225.0162168392772
-223.1707602663832
-221.3256764107348
-219.4809651616782
-217.6366264086031
-215.7926600409492
-213.949065948195
-212.1058440198516
-210.2629941454909
-208.4205162147281
-206.5784101172
-204.7366757426151
-202.8953129807123
-201.0543217212737
-199.2137018541357
-197.3734532691521
-195.5335758562502
-193.6940695053835
-191.8549341065599
-190.0161695498107
-188.1777757252435
-186.3397525229743
-184.5020998331886
-182.6648175461002
-180.8279055519769
-178.991363741117
-177.1551920038837
-175.3193902306492
-173.4839583118655
-171.6488961380066
-169.8142035996006
-167.9798805872103
-166.1459269914375
-164.3123427029405
-162.4791276124186
-160.6462816106059
-158.8138045882843
-156.9816964362768
-155.1499570454605
-153.3185863067366
-151.4875841110647
-149.6569503494434
-147.8266849129061
-145.9967876925425
-144.1672585794813
-142.3380974648817
-140.5093042399657
-138.6808787959878
-136.8528210242393
-135.0251308160702
-133.1978080628565
-131.3708526560326
-129.5442644870613
-127.7180434474594
-125.8921894287742
-124.0667023226136
-122.2415820206161
-120.4168284144633
-118.5924413958758
-116.768420856631
-114.9447666885339
-113.1214787834442
-111.298557033256
-109.4760013299113
-107.6538115653823
-105.8319876317041
-104.0105294209401
-102.1894368251992
-100.3687097366271
-98.54834804743024
-96.72835164983461
-94.9087204361312
-93.08945429862409
-91.27055312969533
-89.45201682174003
-87.63384526721185
-85.81603835859262
-83.9985959884314
-82.18151804929028
-80.36480443379635
-78.54845503460278
-76.7324697444169
-74.91684845597644
-73.10159106207765
-71.28669745553847
-69.47216752923539
-67.65800117608393
-65.84419828903212
-64.03075876108876
-62.21768248527776
-60.40496935469028
-58.59261926244785
-56.78063210171752
-54.96900776569237
-53.15774614764353
-51.34684714085081
-49.53631063864825
-47.72613653440671
-45.91632472154914
-44.10687509353532
-42.29778754385539
-40.48906196605805
-38.68069825373102
-36.87269630049672
-35.06505600001661
-33.25777724601286
-31.45085993222279
-29.64430395244666
-27.83810920051503
-26.03227557030187
-24.22680295573317
-22.42169125076096
-20.61694034938928
-18.81255014565689
-17.00852053365242
-15.20485140749485
-13.40154266135304
-11.59859418944356
-9.796005886000305
-7.993777645324412
-6.191909361749539
-4.390400929641866
-2.589252243423955
-0.7884631975552288
1.011966313478867
2.812036395130006
4.6117471528195
6.411098691927464
8.210091117788476
10.00872453570025
11.80699905090846
13.60491476864361
15.40247179406245
17.19967023230441
18.99651018845254
20.79299176756385
22.58911507464116
24.38488021465042
26.18028729251855
27.97533641313126
29.77002768133089
31.56436120191862
33.35833707966305
35.15195541927644
36.9452163254385
38.73811990279209
40.53066625592803
42.32285548941327
44.11468770776274
45.90616301544149
47.69728151689505
49.48804331650824
51.27844851864636
53.06849722761181
54.85818954768101
56.64752558307397
58.43650543799553
60.22512921658981
62.01339702295973
63.80130896118438
65.58886513527342
67.37606564923438
69.16291060700539
70.94940011248335
72.7355342695457
74.52131318201344
76.30673695366644
78.09180568825198
79.8765194894805
81.66087846100174
83.4448827064481
85.22853232939553
87.01182743338755
88.79476812192858
90.57735449847972
92.35958666645216
94.14146472923974
95.92298879017346
97.70415895255609
99.48497531964703
101.2654379946624
103.0455470807878
104.8253026811612
106.6047048988751
108.3837538369981
110.1624495985381
111.9407922864813
113.7187820037639
115.4964188532877
117.2737029378978
119.0506343604287
120.8272132236475
122.603439630302
124.3793136830899
126.1548354846592
127.930005137636
129.704822744599
131.479288408079
133.2534022305851
135.0271643145743
136.8005747624649
138.5736336766315
140.3463411594162
142.1186973131201
143.8907022400116
145.6623560422941
147.4336588221581
149.2046106817417
150.975211723151
152.7454620484439
154.5153617596418
156.2849109587247
158.0541097476402
159.8229582282901
161.5914565025419
163.3596046722086
165.1274028390773
166.8948511049048
168.6619495713847
170.4286983401893
172.1950975129452
173.9611471912312
175.726847476609
177.4921984705751
179.257200274602
181.0218529901212
182.7861567185295
184.5501115611652
186.3137176193424
188.0769749943367
189.8398837873842
191.6024440996736
193.3646560323631
195.1265196865697
196.8880351633693
198.6492025637899
200.4100219888403
202.1704935394812
203.9306173166194
205.6903934211508
207.449821953904
209.2089030156967
210.9676367072796
212.7260231293794
214.4840623826859
216.2417545678455
217.9990997854615
219.7560981361067
221.5127497203081
223.2690546385627
225.0250129913131
226.7806248789825
228.5358904019421
230.2908096605259
232.0453827550292
233.7996097857126
235.5534908527954
237.3070260564577
239.0602154968432
240.8130592740539
242.565557488153
244.3177102391626
246.0695176270786
247.8209797518406
249.5720967133686
251.3228686115221
253.073295546143
254.8233776170235
256.5731149239167
258.3225075665409
260.0715556445735
261.820259257659
263.5686185053945
265.3166334873444
267.0643043030385
268.8116310519545
270.5586138335419
272.3052527472134
274.0515478923447
275.7974993682598
277.5431072742562
279.2883717095928
281.0332927734825
282.7778705651106
284.5221051836185
286.2659967281045
288.0095452976409
289.7527509912413
291.4956139079129
293.2381341465935
294.9803118061992
296.7221469856048
298.4636397836506
300.2047902991249
301.9455986307917
303.6860648773765
305.4261891375612
307.1659715099908
308.9054120932735
310.644510985985
312.3832682866445
314.1216840937627
315.8597585057828
317.5974916211333
319.3348835381859
321.0719343552842
322.8086441707393
324.545013082819
326.2810411897412
328.0167285897085
329.7520753808652
331.4870816613314
333.2217475291907
334.9560730824767
336.6900584191989
338.4237036373129
340.1570088347548
341.8899741094105
343.6225995591315
345.3548852817346
347.0868313749931
348.8184379366521
350.5497050644091
352.2806328559291
354.01122140884
355.7414708207332
357.4713811891543
359.2009526116229
360.9301851856175
362.6590790085709
364.387634177888
366.1158507909344
367.8437289450389
369.5712687374936
371.2984702655404
373.0253336264064
374.7518589172685
376.4780462352582
378.2038956774876
379.9294073410209
381.65458132289
383.3794177200787
385.1039166295474
386.8280781482128
388.5519023729528
390.2753894006149
391.998539328003
393.7213522518844
395.4438282689917
397.1659674760226
398.8877699696337
400.6092358464471
402.3303652030412
404.0511581359664
405.771614741732
407.4917351168102
409.2115193576342
410.9309675606136
412.6500798220991
414.3688562384244
416.0872969058687
417.8054019206832
419.5231713790952
421.2406053772712
422.9577040113517
424.6744673774491
426.3908955716195
428.1069886899035
429.8227468282944
431.5381700827417
433.2532585491714
434.9680123234682
436.6824315014777
438.3965161790172
440.1102664518459
441.8236824157073
443.5367641663105
445.2495117993082
446.9619254103292
448.6740050949739
450.3857509487891
452.0971630672926
453.8082415459703
455.5189864802601
457.2293979655828
458.9394760972938
460.6492209707465
462.3586326812294
464.067711324007
465.7764569943046
467.4848697873175
469.1929497981973
470.9006971220613
472.6081118539894
474.3151940890273
476.0219439221814
477.72836144843
479.4344467627036
481.140199959909
482.845621134903
484.5507103825208
486.2554677975456
487.9598934747365
489.6639875088139
491.3677499944632
493.0711810263244
494.774280699016
496.4770491071107
498.1794863451422
499.8815925076183
501.5833676890076
503.2848119837356
504.9859254861993
506.6867082907634
508.3871604917426
510.0872821834322
511.7870734600775
513.4865344158935
515.1856651450671
516.8844657417286
518.5829362999976
520.281076913944
521.9788876775983
523.6763686849652
525.3735200300147
527.0703418066669
528.7668341088158
530.4629970303253
532.1588306650112
533.8543351066636
535.5495104490292
537.244356785824
538.9388742107278
540.6330628173871
542.3269226994036
544.0204539503522
545.7136566637761
547.4065309331658
549.0990768519947
550.7912945136952
552.4831840116517
554.1747454392291
555.8659788897536
557.5568844565117
559.2474622327583
560.937712311704
562.6276347865341
564.3172297504032
566.006497296418
567.6954375176423
569.3840505071375
571.0723363578978
572.7602951628913
574.4479270150581
576.1352320072968
577.8222102324737
579.5088617834118
581.1951867529123
582.8811852337307
584.5668573185836
586.2522031001706
587.937222671143
589.6219161241113
591.3062835516706
592.9903250463556
594.6740407006854
596.3574306071403
598.0404948581594
599.7232335461558
601.4056467634928
603.0877346025203
604.7694971555301
606.4509345147964
608.1320467725502
609.8128340209898
611.4932963522746
613.1734338585401
614.8532466318719
616.5327347643361
618.2118983479469
619.890737474703
621.5692522365513
623.2474427254106
624.9253090331755
626.6028512516846
628.2800694727567
629.9569637881739
631.6335342896771
633.3097810689745
634.9857042177529
636.6613038276533
638.3365799902691
640.0115327971829
641.6861623399317
643.3604687100091
645.0344519988959
646.7081122980226
648.3814496987834
650.0544642925438
651.7271561706393
653.399525424364
655.0715721449752
656.7432964237041
658.414698351741
660.0857780202432
661.756535520338
663.4269709431049
665.0970843796082
666.7668759208624
668.4363456578579
670.1054936815443
671.7743200828382
673.4428249526243
675.1110083817475
676.7788704610251
678.4464112812418
680.1136309331299
681.7805295074135
683.4471070947665
685.1133637858368
686.7792996712246
688.4449148415067
690.110209387231
691.7751833989001
693.4398369669867
695.1041701819217
696.7681831341212
698.4318759139467
700.0952486117405
701.7583013178039
703.4210341224029
705.0834471157715
706.745540388111
708.40731402959
710.0687681303361
711.7299027804553
713.3907180700057
715.0512140890173
716.711390927494
718.3712486753899
720.0307874226374
721.6900072591278
723.3489082747327
725.0074905592718
726.6657542025386
728.3236992942985
729.9813259242695
731.6386341821518
733.2956241575981
734.9522959402351
736.6086496196612
738.264685285425
739.9204030270533
741.5758029340343
743.2308850958275
744.88564960186
746.5400965415178
748.1942260041523
749.8480380790842
751.501532855615
753.1547104229854
754.8075708704274
756.4601142871276
758.1123407622331
759.7642503848743
761.4158432441378
763.0671194290713
764.7180790287008
766.3687221320134
768.0190488279612
769.6690592054684
771.31875335342
772.9681313606686
774.6171933160364
776.2659393083172
777.914369426251
779.5624837585689
781.2102823939564
782.85776542106
784.5049329285154
786.1517850048997
787.7983217387685
789.4445432186492
791.090449533021
792.7360407703463
794.3813170190441
796.0262783675048
797.6709249040759
799.3152567170916
800.9592738948386
802.6029765255644
804.2463646975054
805.8894384988403
807.5321980177295
809.1746433423036
810.8167745606477
812.4585917608182
814.1000950308438
815.7412844587184
817.3821601324011
819.0227221398141
820.6629705688559
822.3029055073861
823.9425270432248
825.5818352641818
827.22083025801
828.8595121124345
830.4978809151606
832.1359367538528
833.773679716134
835.4111098896055
837.048227361832
838.6850322203475
840.3215245526559
841.9577044462218
843.5935719884732
845.2291272668207
846.8643703686291
848.4993013812355
850.1339203919505
851.7682274880329
853.4022227567307
855.0359062852548
856.6692781607666
858.3023384704119
859.9350873012999
861.5675247405072
863.1996508750759
864.8314657920195
866.4629695783084
868.0941623209065
869.7250441067083
871.3556150226061
872.9858751554488
874.615824592044
876.2454634191844
877.8747917236192
879.5038095920715
881.132517111219
882.7609143677263
884.3890014482103
886.0167784392596
887.6442454274327
889.2714024992597
890.8982497412339
892.5247872398077
894.1510150814198
895.776933352464
897.4025421393012
899.0278415282709
900.6528316056603
902.2775124577546
903.9018841707782
905.5259468309382
907.1497005244049
908.7731453373202
910.3962813557871
912.0191086658849
913.6416273536557
915.2638375051138
916.885739206232
918.5073325429678
920.1286176012251
921.7495944668962
923.3702632258285
924.9906239638429
926.610676766726
928.2304217202337
929.8498589100941
931.4689884219914
933.0878103415994
934.706324754531
936.3245317463861
937.9424314027344
939.5600238091065
941.1773090510002
942.7942872138918
944.4109583832123
946.0273226443686
947.6433800827415
949.2591307836643
950.8745748324508
952.4897123143819
954.1045433147065
955.7190679186384
957.3332862113571
958.9471982780198
960.5608042037453
962.1741040736283
963.7870979727201
965.399785986048
967.0121681986028
968.6242446953577
970.2360155612339
971.8474808811375
973.4586407399398
975.0694952224666
976.6800444135329
978.2902883979082
979.9002272603357
981.5098610855287
983.1191899581696
984.7282139629024
986.3369331843445
987.9453477070832
989.5534576156713
991.1612629946308
992.7687639284537
994.3759605016014
995.9828527985053
997.5894409035637
999.1957249011366
1000.801704875564
1002.407380911151
1004.012753092168
1005.617821502854
1007.222586227427
1008.827047350067
1010.431204954908
1012.035059126083
1013.638609947672
1015.241857503727
1016.844801878273
1018.447443155309
1020.049781418788
1021.65181675264
1023.253549240768
1024.854978967044
1026.4561060153
1028.056930469348
1029.657452412953
1031.257671929868
1032.85758910381
1034.457204018451
1036.056516757447
1037.655527404422
1039.254236042965
1040.852642756628
1042.450747628946
1044.048550743412
1045.646052183497
1047.24325203263
1048.840150374227
1050.436747291646
1052.033042868246
1053.629037187326
1055.224730332177
1056.820122386048
1058.415213432153
1060.010003553688
1061.60449283381
1063.198681355646
1064.792569202295
1066.386156456818
1067.979443202267
1069.572429521625
1071.16511549788
1072.757501213977
1074.34958675282
1075.941372197305
1077.532857630273
1079.124043134553
1080.714928792933
1082.305514688176
1083.895800903011
1085.48578752014
1087.075474622227
1088.664862291919
1090.253950611815
1091.842739664502
1093.431229532522
1095.019420298397
1096.607312044608
1098.19490485361
1099.782198807839
1101.369193989685
1102.955890481506
1104.542288365652
1106.128387724419
1107.714188640079
1109.299691194885
1110.884895471041
1112.469801550738
1114.054409516126
1115.63871944933
1117.222731432442
1118.806445547526
1120.389861876615
1121.97298050171
1123.55580150478
1125.138324967771
1126.720550972597
1128.302479601138
1129.884110935241
1131.465445056736
1133.04648204741
1134.627221989026
1136.207664963311
1137.787811051974
1139.367660336682
1140.947212899077
1142.526468820772
1144.105428183351
1145.684091068359
1147.262457557318
1148.840527731728
1150.41830167304
1151.995779462697
1153.572961182091
1155.149846912599
1156.726436735566
1158.302730732298
1159.87872898408
1161.454431572162
1163.029838577773
1164.604950082105
1166.179766166322
1167.754286911552
1169.328512398901
1170.902442709446
1172.476077924234
1174.049418124271
1175.622463390543
1177.195213804014
1178.7676694456
1180.3398303962
1181.911696736685
1183.483268547883
1185.054545910606
1186.625528905635
1188.196217613712
1189.766612115558
1191.33671249186
1192.906518823274
1194.47603119044
1196.04524967395
1197.614174354377
1199.182805312257
1200.751142628111
1202.319186382407
1203.886936655613
1205.454393528142
1207.021557080397
1208.588427392728
1210.155004545484
1211.721288618965
1213.287279693447
1214.852977849178
1216.418383166371
1217.98349572522
1219.548315605878
1221.112842888484
1222.677077653128
1224.241019979887
1225.804669948798
1227.368027639879
1228.931093133106
1230.493866508438
1232.056347845801
1233.618537225085
1235.180434726159
1236.742040428864
1238.303354413001
1239.864376758352
1241.425107544668
1242.985546851668
1244.545694759043
1246.105551346456
1247.665116693543
1249.224390879906
1250.783373985119
1252.342066088727
1253.90046727025
1255.458577609169
1257.016397184954
1258.573926077029
1260.131164364797
1261.688112127631
1263.244769444869
1264.801136395828
1266.357213059791
1267.912999516018
1269.468495843735
1271.023702122149
1272.578618430411
1274.133244847679
1275.687581453059
1277.241628325633
1278.79538554445
1280.348853188549
1281.902031336915
1283.454920068521
1285.007519462305
1286.559829597178
1288.111850552027
1289.663582405695
1291.215025237011
1292.766179124764
1294.317044147736
1295.867620384654
1297.417907914233
1298.967906815151
1300.517617166056
1302.067039045576
1303.616172532306
1305.165017704815
1306.713574641637
1308.261843421278
1309.809824122229
1311.357516822933
1312.904921601816
1314.452038537277
1315.99886770768
1317.545409191359
1319.091663066628
1320.637629411768
1322.183308305033
1323.728699824643
1325.273804048796
1326.818621055666
1328.363150923377
1329.907393730052
1331.451349553768
1332.995018472585
1334.538400564521
1336.081495907572
1337.624304579715
1339.166826658884
1340.709062222997
1342.251011349932
1343.792674117546
1345.334050603672
1346.875140886103
1348.41594504261
1349.956463150947
1351.496695288809
1353.036641533892
1354.57630196386
1356.115676656336
1357.654765688924
1359.193569139196
1360.732087084698
1362.270319602945
1363.808266771429
1365.345928667618
1366.883305368932
1368.420396952784
1369.957203496554
1371.49372507758
1373.02996177319
1374.565913660681
1376.101580817311
1377.636963320319
1379.172061246911
1380.706874674273
1382.241403679553
1383.775648339885
1385.309608732354
1386.843284934033
1388.376677021969
1389.909785073171
1391.442609164622
1392.975149373287
1394.507405776089
1396.039378449932
1397.571067471692
1399.102472918214
1400.63359486632
1402.164433392786
1403.694988574397
1405.225260487869
1406.755249209921
1408.284954817227
1409.814377386443
1411.343516994189
1412.872373717066
1414.40094763164
1415.929238814452
1417.457247342012
1418.984973290812
1420.51241673731
1422.039577757934
1423.566456429089
1425.093052827146
1426.619367028454
1428.145399109339
1429.671149146088
1431.196617214963
1432.721803392206
1434.246707754032
1435.771330376612
1437.295671336107
1438.81973070865
1440.343508570326
1441.867004997224
1443.390220065379
1444.913153850812
1446.435806429509
1447.958177877441
1449.480268270538
1451.002077684706
1452.523606195828
1454.044853879757
1455.56582081232
1457.086507069311
1458.606912726507
1460.127037859653
1461.646882544459
1463.166446856615
1464.685730871783
1466.204734665601
1467.723458313678
1469.241901891588
1470.76006547489
1472.277949139107
1473.795552959735
1475.312877012244
1476.829921372089
1478.346686114682
1479.863171315403
1481.379377049625
1482.89530339268
1484.410950419875
1485.926318206493
1487.441406827794
1488.956216358992
1490.470746875298
1491.984998451881
1493.49897116389
1495.012665086442
1496.526080294622
1498.039216863505
1499.55207486812
1501.06465438349
1502.576955484584
1504.08897824637
1505.600722743771
1507.112189051696
1508.623377245017
1510.13428739858
1511.644919587217
1513.155273885718
1514.665350368846
1516.175149111354
1517.684670187948
1519.193913673315
1520.702879642124
1522.211568169001
1523.719979328558
1525.228113195378
1526.735969844008
1528.243549348979
1529.750851784794
1531.257877225921
1532.76462574681
1534.271097421878
1535.77729232552
1537.283210532102
1538.78885211597
1540.294217151435
1541.799305712775
1543.304117874258
1544.808653710121
1546.312913294563
1547.816896701763
1549.320604005877
1550.824035281041
1552.327190601345
1553.830070040864
1555.332673673639
1556.835001573706
1558.337053815047
1559.838830471635
1561.340331617414
1562.841557326288
1564.342507672154
1565.843182728874
1567.343582570273
1568.843707270174
1570.34355690235
1571.84313154056
1573.342431258533
1574.841456129965
1576.340206228546
1577.838681627926
1579.336882401713
1580.834808623515
1582.332460366902
1583.829837705419
1585.326940712589
1586.823769461894
1588.320324026806
1589.816604480767
1591.312610897191
1592.808343349455
1594.303801910934
1595.798986654949
1597.293897654818
1598.78853498382
1600.282898715213
1601.776988922224
1603.270805678055
1604.764349055886
1606.257619128869
1607.750615970126
1609.243339652762
1610.735790249845
1612.227967834421
1613.719872479513
1615.211504258118
1616.7028632432
1618.193949507706
1619.684763124543
1621.175304166612
1622.665572706772
1624.15556881787
1625.645292572702
1627.134744044069
1628.623923304721
1630.112830427399
1631.601465484811
1633.089828549637
1634.577919694532
1636.06573899213
1637.553286515034
1639.040562335821
1640.527566527054
1642.014299161245
1643.500760310905
1644.986950048509
1646.472868446502
1647.958515577312
1649.443891513333
1650.928996326942
1652.413830090476
1653.898392876265
1655.382684756599
1656.866705803744
1658.350456089951
1659.833935687435
