corrn_curve_cubic
4.77262805
4.76587142
4.75910991
4.75236208
4.74560936
4.73887082
4.73213618
4.72540643
4.71868058
4.71195914
4.70525182
4.69853965
4.69184112
4.68513726
4.67844751
4.67176215
4.66508118
4.65840461
4.65174162
4.64507383
4.63842009
4.63176109
4.62512529
4.61848423
4.61184803
4.60521575
4.59858784
4.59197395
4.58535530
4.57875017
4.57214942
4.56555304
4.55896105
4.55237344
4.54579930
4.53922045
4.53265554
4.52609501
4.51952930
4.51297704
4.50642963
4.49989565
4.49335652
4.48682223
4.48030136
4.47378486
4.46727272
4.46075546
4.45426155
4.44776252
4.44126786
4.43478704
4.42830112
4.42182855
4.41536082
4.40889745
4.40243797
4.39598332
4.38953258
4.38308666
4.37666346
4.37022580
4.36380190
4.35738236
4.35095826
4.34455682
4.33815036
4.33175761
4.32535986
4.31897536
4.31259567
4.30622033
4.29984888
4.29348224
4.28711996
4.28077088
4.27441684
4.26807691
4.26174087
4.25540917
4.24907301
4.24275882
4.23644062
4.23012631
4.22381635
4.21751999
4.21123674
4.20493982
4.19865647
4.19237747
4.18610235
4.17984077
4.17357479
4.16732189
4.16107378
4.15482495
4.14858505
4.14235407
4.13611872
4.12990099
4.12368300
4.11747392
4.11126003
4.10505961
4.09886306
4.09266674
4.08648387
4.08030486
4.07413519
4.06796483
4.06179472
4.05563756
4.04948518
4.04334120
4.03719701
4.03105715
4.02492613
4.01879989
4.01268158
4.00656804
4.00045881
3.99434489
3.98824881
3.98215254
3.97606464
3.96998600
3.96390673
3.95783671
3.95177055
3.94570915
3.93965162
3.93360287
3.92755396
3.92150981
3.91547400
3.90944696
3.90341976
3.89740133
3.89138721
3.88538184
3.87937588
3.87337912
3.86739510
3.86140694
3.85542708
3.84945196
3.84348069
3.83751417
3.83155151
3.82559756
3.81964836
3.81370301
3.80776196
3.80182962
3.79590597
3.78998617
3.78406670
3.77815153
3.77224504
3.76634285
3.76045328
3.75455966
3.74867428
3.74279363
3.73691682
3.73105304
3.72518525
3.71932567
3.71347038
3.70761981
3.70178137
3.69594328
3.69010948
3.68428864
3.67846340
3.67264678
3.66683444
3.66103028
3.65523082
3.64943132
3.64364431
3.63785725
3.63207921
3.62630933
3.62053510
3.61477806
3.60901712
3.60326001
3.59751578
3.59177152
3.58603153
3.58030438
3.57457293
3.56885816
3.56313525
3.55742944
3.55172318
3.54602588
3.54032432
3.53463938
3.52895018
3.52327376
3.51759776
3.51193410
3.50626621
3.50061106
3.49495169
3.48930928
3.48366267
3.47802877
3.47239067
3.46676950
3.46114793
3.45552682
3.44991839
3.44430959
3.43870966
3.43311776
3.42752213
3.42193873
3.41636376
3.41078466
3.40521818
3.39965594
3.39409001
3.38854044
3.38299093
3.37744567
3.37190840
3.36637579
3.36085158
3.35532328
3.34980713
3.34429563
3.33879211
3.33328493
3.32778987
3.32229905
3.31681246
3.31132638
3.30585239
3.30038263
3.29491710
3.28945992
3.28400285
3.27855001
3.27310552
3.26766525
3.26223291
3.25680520
3.25138130
3.24596204
3.24054659
3.23513987
3.22972920
3.22433051
3.21894013
3.21354989
3.20816835
3.20279063
3.19742118
3.19205189
3.18669088
3.18133368
3.17598109
3.17063273
3.16529263
3.15995269
3.15462061
3.14929719
3.14397354
3.13865853
3.13334733
3.12804074
3.12273796
3.11744743
3.11215708
3.10687094
3.10158901
3.09631529
3.09104577
3.08577646
3.08051535
3.07526644
3.07001772
3.06477281
3.05953250
3.05429638
3.04906408
3.04384789
3.03862438
3.03341261
3.02820146
3.02299412
3.01780285
3.01260785
3.00741745
3.00223084
2.99705633
2.99188205
2.98671197
2.98155356
2.97639579
2.97123828
2.96609635
2.96095114
2.95581365
2.95068466
2.94555554
2.94043099
2.93531415
2.93020150
2.92509341
2.91999301
2.91489290
2.90980475
2.90471689
2.89962933
2.89455759
2.88948227
2.88441849
2.87935539
2.87430034
2.86924560
2.86419851
2.85915984
2.85412110
2.84909077
2.84406037
2.83904184
2.83402401
2.82901382
2.82401162
2.81900592
2.81401205
2.80901852
2.80403297
2.79905159
2.79407819
2.78910857
2.78413587
2.77917876
2.77421820
2.76926902
2.76432780
2.75937973
2.75444682
2.74951806
2.74458626
2.73966959
2.73475329
2.72983775
2.72493354
2.72003687
2.71513380
2.71024580
2.70536157
2.70048187
2.69560256
2.69073115
2.68586726
2.68100789
2.67614518
2.67129746
2.66645015
2.66161109
2.65677580
2.65193720
2.64711429
2.64229142
2.63747641
2.63266554
2.62786252
2.62305621
2.61825776
2.61346714
2.60868029
2.60390164
2.59912342
2.59435266
2.58958640
2.58482391
2.58006959
2.57531168
2.57056562
2.56582332
2.56108515
2.55635148
2.55162523
2.54690310
2.54218510
2.53747123
2.53276513
2.52806314
2.52336528
2.51867119
2.51398157
2.50929971
2.50462523
2.49995523
2.49528536
2.49061997
2.48596196
2.48130842
2.47665864
2.47201297
2.46737503
2.46274155
2.45811542
2.45348981
2.44887191
2.44425452
2.43964484
2.43503926
2.43044459
2.42585080
2.42125755
2.41667162
2.41209015
2.40751956
2.40294986
2.39838036
2.39381887
2.38926822
2.38471458
2.38016859
2.37562669
2.37109244
2.36656227
2.36203303
2.35751424
2.35299637
2.34848259
2.34397995
2.33947753
2.33497604
2.33048917
2.32599904
2.32151334
2.31703839
2.31256438
2.30810108
2.30363490
2.29917316
2.29472212
2.29027170
2.28583230
2.28139004
2.27695881
2.27252819
2.26810512
2.26368267
2.25927121
2.25486004
2.25045673
2.24605407
2.24166202
2.23726751
2.23288361
2.22850070
2.22412496
2.21975020
2.21538603
2.21102934
2.20666648
2.20231793
2.19796663
2.19362622
2.18929328
2.18495421
2.18062940
2.17630187
2.17198485
2.16767562
2.16336369
2.15905887
2.15476182
2.15046513
2.14617622
2.14189102
2.13761326
2.13333652
2.12906687
2.12480128
2.12053640
2.11628228
2.11203221
2.10778619
2.10354424
2.09930300
2.09507249
2.09084603
2.08662661
2.08240825
2.07819063
2.07398336
2.06978047
2.06558130
2.06138949
2.05719875
2.05301172
2.04883205
2.04465675
2.04048846
2.03632092
2.03216072
2.02800455
2.02385571
2.01970763
2.01556653
2.01142981
2.00729712
2.00317141
1.99904354
1.99492623
1.99081263
1.98670339
1.98259786
1.97849993
1.97440896
1.97031877
1.96623262
1.96215373
1.95807887
1.95400514
1.94994124
1.94587846
1.94181972
1.93776823
1.93372075
1.92967731
1.92563789
1.92160857
1.91758040
1.91355593
1.90953580
1.90552257
1.90151049
1.89750529
1.89350729
1.88951045
1.88552048
1.88153137
1.87754943
1.87357784
1.86960394
1.86563405
1.86167134
1.85771546
1.85376077
1.84981324
1.84586657
1.84192988
1.83799437
1.83406287
1.83014132
1.82621753
1.82230119
1.81839165
1.81448300
1.81058178
1.80668705
1.80279073
1.79890121
1.79502189
1.79114037
1.78726904
1.78339862
1.77953189
1.77567255
1.77181721
1.76796863
1.76412128
1.76028099
1.75644133
1.75260903
1.74878348
1.74495611
1.74114160
1.73732497
1.73351842
1.72971009
1.72591425
1.72211694
1.71832634
1.71454246
1.71075983
1.70698422
1.70320957
1.69944495
1.69567827
1.69192130
1.68817132
1.68441961
1.68067489
1.67693384
1.67320007
1.66946998
1.66574087
1.66202172
1.65830684
1.65459265
1.65088542
1.64718513
1.64348288
1.63979053
1.63610216
1.63241775
1.62873436
1.62506056
1.62139101
1.61772514
1.61406059
1.61040589
1.60675485
1.60310778
1.59946497
1.59582290
1.59218802
1.58855973
1.58493539
1.58131502
1.57769570
1.57408616
1.57047767
1.56687605
1.56328128
1.55968757
1.55610041
1.55251461
1.54893277
1.54535777
1.54178673
1.53822223
1.53466167
1.53110536
1.52755271
1.52400687
1.52046240
1.51692446
1.51339046
1.50986042
1.50633716
1.50281529
1.49929964
1.49578822
1.49228074
1.48878004
1.48528045
1.48178763
1.47829847
1.47481353
1.47133535
1.46786363
1.46439304
1.46092666
1.45746395
1.45400545
1.45055340
1.44710529
1.44366140
1.44022394
1.43679041
1.43335804
1.42993237
1.42651064
1.42309284
1.41968451
1.41627705
1.41287380
1.40947448
1.40608432
1.40269284
1.39930777
1.39592416
1.39255242
1.38917940
1.38581003
1.38244759
1.37909152
1.37573665
1.37238842
1.36904410
1.36570370
1.36236723
1.35903737
1.35570873
1.35238671
1.34907130
1.34575710
1.34244681
1.33914287
1.33584310
1.33254966
1.32925771
1.32597208
1.32268795
1.31941014
1.31613890
1.31286651
1.30960574
1.30634356
1.30309059
1.29983622
1.29659371
1.29334980
1.29011244
1.28687897
1.28365205
1.28042375
1.27720699
1.27398913
1.27078042
1.26757533
1.26436917
1.26117449
1.25797874
1.25479184
1.25160883
1.24842477
1.24525214
1.24207821
1.23891336
1.23575239
1.23259040
1.22943953
1.22629023
1.22314481
1.22000585
1.21687077
1.21373701
1.21060970
1.20748858
1.20437159
1.20125338
1.19814645
1.19504085
1.19194193
1.18884155
1.18575267
1.18266538
1.17958171
1.17650444
1.17342600
1.17035901
1.16729337
1.16423160
1.16117622
1.15812470
1.15507205
1.15203078
1.14899062
1.14595709
1.14292741
1.13990136
1.13687942
1.13386110
1.13084937
1.12783631
1.12483231
1.12183440
1.11883788
1.11584769
1.11285914
1.10987667
1.10690052
1.10392576
1.10095707
1.09799028
1.09502931
1.09207243
1.08912185
1.08617269
1.08322957
1.08029055
1.07735537
1.07442865
1.07150094
1.06857974
1.06566215
1.06274864
1.05983875
1.05693511
1.05403315
1.05113721
1.04824965
1.04536162
1.04247936
1.03959903
1.03672468
1.03385395
1.03099204
1.02812922
1.02527261
1.02241961
1.01957068
1.01672771
1.01388881
1.01105116
1.00821994
1.00539466
1.00257110
0.99975349
0.99694204
0.99413208
0.99132363
0.98852367
0.98572754
0.98293524
0.98014676
0.97736443
0.97458361
0.97181123
0.96903807
0.96627080
0.96350989
0.96075051
0.95799472
0.95524756
0.95250171
0.94976196
0.94702398
0.94429414
0.94156380
0.93884159
0.93612094
0.93340410
0.93069334
0.92798639
0.92528551
0.92258395
0.91989294
0.91720125
0.91451785
0.91183804
0.90915780
0.90648806
0.90381745
0.90115309
0.89849255
0.89583780
0.89318686
0.89053774
0.88789662
0.88525489
0.88262160
0.87999188
0.87736377
0.87474385
0.87212773
0.86951103
0.86690250
0.86429995
0.86169684
0.85910166
0.85651049
0.85391879
0.85133737
0.84875737
0.84618353
0.84360897
0.84104272
0.83848219
0.83592330
0.83336628
0.83081711
0.82827173
0.82573036
0.82319468
0.82065854
0.81813043
0.81560610
0.81308556
0.81056880
0.80805773
0.80554854
0.80304313
0.80054361
0.79804787
0.79555779
0.79306961
0.79058709
0.78810855
0.78563358
0.78316447
0.78069726
0.77823569
0.77577789
0.77332408
0.77087589
0.76842736
0.76598671
0.76354984
0.76111878
0.75868944
0.75626592
0.75384596
0.75142996
0.74901774
0.74660928
0.74420438
0.74180548
0.73941034
0.73701876
0.73463114
0.73224709
0.72986881
0.72749649
0.72512573
0.72275872
0.72039548
0.71803799
0.71568445
0.71333248
0.71099003
0.70864756
0.70631082
0.70397586
0.70164663
0.69932311
0.69700315
0.69468518
0.69237291
0.69006615
0.68776138
0.68546016
0.68316289
0.68087305
0.67858502
0.67630093
0.67402232
0.67174552
0.66947439
0.66720893
0.66494529
0.66268367
0.66043114
0.65817892
0.65593196
0.65369083
0.65145154
0.64921959
0.64698777
0.64475970
0.64253913
0.64032023
0.63810882
0.63589757
0.63369361
0.63148983
0.62929147
0.62710057
0.62490985
0.62272454
0.62054296
0.61836695
0.61619283
0.61402427
0.61185944
0.60970017
0.60754463
0.60538913
0.60324268
0.60109647
0.59895763
0.59681887
0.59468910
0.59256123
0.59043545
0.58831682
0.58620209
0.58408729
0.58198160
0.57987622
0.57777616
0.57568161
0.57358898
0.57150185
0.56941843
0.56734049
0.56526272
0.56319220
0.56112538
0.55906051
0.55700111
0.55494700
0.55289676
0.55084848
0.54880548
0.54676636
0.54473250
0.54270234
0.54067259
0.53864984
0.53663096
0.53461733
0.53260739
0.53060115
0.52859535
0.52659651
0.52460290
0.52261162
0.52062540
0.51864304
0.51666437
0.51469108
0.51271980
0.51075372
0.50878814
0.50682962
0.50487629
0.50292515
0.50097919
0.49903542
0.49709684
0.49516361
0.49323256
0.49130503
0.48938285
0.48746434
0.48554968
0.48363854
0.48173272
0.47982894
0.47793358
0.47603879
0.47414768
0.47226025
0.47037812
0.46849788
0.46662310
0.46475200
0.46288601
0.46102226
0.45916522
0.45731041
0.45545911
0.45361148
0.45176768
0.44992898
0.44809554
0.44626417
0.44443647
0.44261260
0.44079523
0.43898010
0.43716723
0.43535928
0.43355826
0.43175778
0.42996253
0.42816939
0.42638439
0.42460011
0.42281934
0.42104546
0.41927354
0.41750391
0.41574236
0.41398141
0.41222428
0.41047368
0.40872522
0.40698041
0.40524092
0.40350342
0.40177257
0.40004387
0.39831733
0.39659877
0.39488102
0.39316989
0.39145944
0.38975560
0.38805378
0.38635869
0.38466431
0.38297635
0.38128926
0.37960858
0.37793024
0.37625830
0.37458709
0.37292242
0.37126008
0.36960269
0.36794749
0.36629736
0.36465087
0.36300944
0.36137165
0.35973606
0.35810553
0.35648005
0.35485537
0.35323700
0.35162100
0.35001003
0.34840395
0.34679884
0.34520001
0.34360494
0.34201197
0.34042554
0.33884121
0.33726188
0.33568494
0.33411285
0.33254438
0.33098090
0.32941832
0.32786208
0.32630945
0.32476044
0.32321370
0.32167328
0.32013633
0.31860313
0.31707354
0.31554624
0.31402375
0.31250633
0.31099239
0.30948219
0.30797547
0.30647250
0.30497431
0.30347725
0.30198628
0.30049891
0.29901516
0.29753630
0.29605976
0.29458811
0.29312006
0.29165562
0.29019478
0.28873882
0.28728646
0.28583643
0.28439241
0.28295085
0.28151288
0.28007965
0.27864889
0.27722298
0.27580053
0.27438293
0.27296781
0.27155739
0.27014946
0.26874623
0.26734782
0.26595300
0.26456177
0.26317290
0.26178897
0.26040851
0.25903272
0.25765943
0.25629214
0.25492722
0.25356590
0.25220803
0.25085388
0.24950331
0.24815857
0.24681635
0.24547771
0.24414254
0.24281329
0.24148539
0.24016213
0.23884255
0.23752760
0.23621623
0.23490727
0.23360419
0.23230354
0.23100531
0.22971193
0.22842416
0.22713893
0.22585615
0.22457920
0.22330469
0.22203588
0.22076851
0.21950471
0.21824770
0.21699104
0.21574116
0.21449274
0.21324778
0.21200858
0.21077195
0.20953987
0.20831026
0.20708638
0.20586401
0.20464724
0.20343296
0.20222330
0.20101614
0.19981467
0.19861462
0.19742025
0.19622838
0.19504101
0.19385730
0.19267714
0.19150147
0.19032842
0.18915985
0.18799390
0.18683346
0.18567564
0.18452126
0.18337146
0.18222428
0.18108157
0.17994341
0.17880688
0.17767581
0.17654828
0.17542329
0.17430384
0.17318694
0.17207446
0.17096464
0.16985934
0.16875758
0.16765838
0.16656457
0.16547439
0.16438765
0.16330454
0.16222400
0.16114882
0.16007632
0.15900820
0.15794361
0.15688171
0.15582418
0.15477113
0.15372160
0.15267560
0.15163312
0.15059334
0.14955792
0.14852686
0.14749859
0.14647457
0.14545508
0.14443820
0.14342484
0.14241582
0.14141040
0.14040842
0.13941004
0.13841519
0.13742465
0.13643683
0.13545333
0.13447334
0.13349695
0.13252486
0.13155542
0.13059036
0.12962880
0.12867077
0.12771632
0.12676608
0.12581866
0.12487543
0.12393579
0.12299967
0.12206705
0.12113794
0.12021392
0.11929265
0.11837488
0.11746054
0.11654979
0.11564335
0.11474115
0.11384163
0.11294570
0.11205318
0.11116417
0.11028025
0.10939911
0.10852060
0.10764638
0.10677565
0.10590998
0.10504703
0.10418679
0.10333160
0.10247912
0.10163091
0.10078542
0.09994486
0.09910636
0.09827211
0.09744276
0.09661549
0.09579163
0.09497281
0.09415666
0.09334473
0.09253563
0.09172994
0.09092919
0.09013126
0.08933746
0.08854643
0.08775888
0.08697552
0.08619565
0.08541994
0.08464633
0.08387827
0.08311231
0.08235051
0.08159212
0.08083795
0.08008590
0.07933929
0.07859487
0.07785459
0.07711772
0.07638498
0.07565446
0.07492931
0.07420705
0.07348753
0.07277278
0.07206086
0.07135310
0.07064875
0.06994722
0.06925043
0.06855584
0.06786597
0.06717956
0.06649600
0.06581706
0.06514165
0.06446908
0.06379997
0.06313486
0.06247328
0.06181515
0.06116042
0.06050979
0.05986256
0.05921825
0.05857793
0.05794164
0.05730822
0.05667831
0.05605237
0.05542987
0.05481083
0.05419580
0.05358365
0.05297496
0.05237026
0.05176901
0.05117121
0.05057739
0.04998701
0.04939949
0.04881547
0.04823542
0.04765929
0.04708612
0.04651692
0.04595110
0.04538872
0.04482983
0.04427433
0.04372277
0.04317419
0.04262950
0.04208825
0.04155048
0.04101658
0.04048563
0.03995859
0.03943498
0.03891481
0.03839807
0.03788475
0.03737529
0.03686884
0.03636628
0.03586715
0.03537231
0.03488002
0.03439113
0.03390614
0.03342454
0.03294641
0.03247165
0.03200037
0.03153332
0.03106925
0.03060866
0.03015143
0.02969763
0.02924767
0.02880111
0.02835798
0.02791785
0.02748155
0.02704946
0.02661999
0.02619432
0.02577168
0.02535319
0.02493776
0.02452612
0.02411786
0.02371303
0.02331125
0.02291358
0.02251898
0.02212812
0.02174066
0.02135664
0.02097565
0.02059875
0.02022495
0.01985516
0.01948816
0.01912454
0.01876498
0.01840849
0.01805606
0.01770637
0.01736008
0.01701780
0.01667834
0.01634285
0.01601047
0.01568207
0.01535649
0.01503489
0.01471610
0.01440126
0.01408955
0.01378178
0.01347683
0.01317585
0.01287824
0.01258346
0.01229289
0.01200519
0.01172113
0.01144070
0.01116315
0.01088949
0.01061897
0.01035232
0.01008882
0.00982869
0.00957194
0.00931903
0.00906882
0.00882267
0.00857966
0.00834005
0.00810381
0.00787115
0.00764208
0.00741598
0.00719346
0.00697450
0.00675891
0.00654633
0.00633749
0.00613220
0.00593010
0.00573121
0.00553607
0.00534427
0.00515582
0.00497092
0.00478921
0.00461071
0.00443590
0.00426444
0.00409636
0.00393165
0.00377043
0.00361244
0.00345795
0.00330681
0.00315891
0.00301450
0.00287346
0.00273589
0.00260169
0.00247084
0.00234334
0.00221920
0.00209842
0.00198110
0.00186703
0.00175642
0.00164916
0.00154525
0.00144479
0.00134758
0.00125382
0.00116340
0.00107633
0.00099261
0.00091232
0.00083536
0.00076176
0.00069143
0.00062451
0.00056094
0.00050077
0.00044389
0.00039045
0.00034030
0.00029350
0.00025003
0.00020991
0.00017313
0.00013975
0.00010967
0.00008294
0.00005954
0.00003948
0.00002279
0.00000940
-0.00000064
-0.00000734
-0.00001071
-0.00001075
-0.00000746
-0.00000084
0.00000911
0.00002239
0.00003899
0.00005893
0.00008220
0.00010875
0.00013865
0.00017188
0.00020840
0.00024828
0.00029149
0.00033794
0.00038780
0.00044088
0.00049734
0.00055712
0.00062011
0.00068653
0.00075616
0.00082916
0.00090540
0.00098504
0.00106792
0.00115412
0.00124354
0.00133645
0.00143250
0.00153195
0.00163453
0.00174061
0.00184981
0.00196252
0.00207834
0.00219756
0.00231988
0.00244562
0.00257466
0.00270701
0.00284266
0.00298150
0.00312352
0.00326909
0.00341784
0.00356976
0.00372511
0.00388362
0.00404543
0.00421054
0.00437897
0.00455051
0.00472568
0.00490367
0.00508511
