corrn_curve_quadratic
4.96904776
4.96174026
4.95442808
4.94713134
4.93982995
4.93254449
4.92526389
4.91798918
4.91071933
4.90345486
4.89620627
4.88895307
4.88171521
4.87447223
4.86724511
4.86002334
4.85280694
4.84559590
4.83840015
4.83119982
4.82401529
4.81682568
4.80966175
4.80249273
4.79532959
4.78817127
4.78101829
4.77388104
4.76673928
4.75961270
4.75249145
4.74537553
4.73826495
4.73115970
4.72406958
4.71697498
4.70989602
4.70282238
4.69574376
4.68868024
4.68162256
4.67457994
4.66753236
4.66049062
4.65346392
4.64644252
4.63942643
4.63240541
4.62541014
4.61840995
4.61141506
4.60443566
4.59745136
4.59048203
4.58351850
4.57656025
4.56960678
4.56265911
4.55571621
4.54877911
4.54186703
4.53493997
4.52802831
4.52112192
4.51421122
4.50732546
4.50043489
4.49355965
4.48667961
4.47981439
4.47295492
4.46610072
4.45925126
4.45240757
4.44556913
4.43874545
4.43191702
4.42510433
4.41829638
4.41149367
4.40468674
4.39790398
4.39111750
4.38433576
4.37755925
4.37079792
4.36405124
4.35729044
4.35054479
4.34380436
4.33706866
4.33034807
4.32362332
4.31691316
4.31020870
4.30350404
4.29680952
4.29012513
4.28343660
4.27676754
4.27009876
4.26344009
4.25677681
4.25012854
4.24348498
4.23684221
4.23021441
4.22359132
4.21697877
4.21036605
4.20375413
4.19715666
4.19056485
4.18398259
4.17740066
4.17082390
4.16425717
4.15769610
4.15114407
4.14459770
4.13805649
4.13151079
4.12498474
4.11845903
4.11194282
4.10543706
4.09893117
4.09243571
4.08594493
4.07945978
4.07297930
4.06650876
4.06003858
4.05357403
4.04711893
4.04067375
4.03422893
4.02779403
4.02136426
4.01494438
4.00852440
4.00211479
3.99571932
3.98931996
3.98292999
3.97654561
3.97016589
3.96379175
3.95742227
3.95106263
3.94470857
3.93835916
3.93201486
3.92568038
3.91935571
3.91303566
3.90671649
3.90040243
3.89409816
3.88779899
3.88151381
3.87522483
3.86894516
3.86267104
3.85640155
3.85014647
3.84388762
3.83763804
3.83139356
3.82515462
3.81892912
3.81270452
3.80648499
3.80027980
3.79407042
3.78787073
3.78167612
3.77549073
3.76931087
3.76313146
3.75696586
3.75080072
3.74464570
3.73849986
3.73234990
3.72621875
3.72008394
3.71395372
3.70783771
3.70172216
3.69561167
3.68951534
3.68341493
3.67733278
3.67124245
3.66517082
3.65909921
3.65303762
3.64697200
3.64092455
3.63487306
3.62883566
3.62279920
3.61677636
3.61074949
3.60473667
3.59871985
3.59272157
3.58671928
3.58073101
3.57473876
3.56876498
3.56279127
3.55681853
3.55085975
3.54490105
3.53895227
3.53301250
3.52706925
3.52113946
3.51521912
3.50929486
3.50338449
3.49747910
3.49157026
3.48567927
3.47978882
3.47390336
3.46802686
3.46215577
3.45629408
3.45042853
3.44457633
3.43872954
3.43289168
3.42705042
3.42122249
3.41539951
3.40958149
3.40376449
3.39796077
3.39216201
3.38636820
3.38058370
3.37479979
3.36902083
3.36325118
3.35748647
3.35173062
3.34598014
3.34023417
3.33449356
3.32875746
3.32303107
3.31730094
3.31158398
3.30587626
3.30016916
3.29447172
3.28877878
3.28309506
3.27741196
3.27173808
3.26606868
3.26040463
3.25474549
3.24909555
3.24344624
3.23780570
3.23217476
3.22654402
3.22092289
3.21530623
3.20969489
3.20408803
3.19849457
3.19290175
3.18731382
3.18173079
3.17615689
3.17058787
3.16501951
3.15946027
3.15391435
3.14836909
3.14282828
3.13729278
3.13176215
3.12623599
3.12072729
3.11521129
3.10970813
3.10420607
3.09870846
3.09322825
3.08774455
3.08226613
3.07679216
3.07133138
3.06587129
3.06041606
3.05497357
3.04953219
3.04409152
3.03866771
3.03324088
3.02782262
3.02241374
3.01700517
3.01160184
3.00620707
3.00081713
2.99543244
2.99005629
2.98468085
2.97931846
2.97395678
2.96859585
2.96325201
2.95790483
2.95257022
2.94723676
2.94191219
2.93658837
2.93127303
2.92596697
2.92066125
2.91536481
2.91006872
2.90478554
2.89950352
2.89422995
2.88896521
2.88369719
2.87844204
2.87318766
2.86794211
2.86270134
2.85746938
2.85224181
2.84701141
2.84179782
2.83658100
2.83137658
2.82618092
2.82097847
2.81579237
2.81061104
2.80542692
2.80025911
2.79509210
2.78992629
2.78477278
2.77962761
2.77447611
2.76934085
2.76420996
2.75908422
2.75395929
2.74884307
2.74373514
2.73863235
2.73352647
2.72843672
2.72334779
2.71826793
2.71319241
2.70811382
2.70305209
2.69799081
2.69293817
2.68789026
2.68285097
2.67780865
2.67277495
2.66774986
2.66272911
2.65771735
2.65270645
2.64770375
2.64270615
2.63771290
2.63272860
2.62774093
2.62276607
2.61779554
2.61282972
2.60786900
2.60291645
2.59796860
2.59302545
2.58808702
2.58315710
2.57823189
2.57331138
2.56839518
2.56348407
2.55858146
2.55368695
2.54879751
2.54390859
2.53902474
2.53414898
2.52927829
2.52441190
2.51955021
2.51469696
2.50984877
2.50500864
2.50016943
2.49533864
2.49050878
2.48568734
2.48087058
2.47606558
2.47126189
2.46645913
2.46166439
2.45687469
2.45209672
2.44732006
2.44254397
2.43777662
2.43302097
2.42826257
2.42351251
2.41876711
2.41403005
2.40929763
2.40456654
2.39984672
2.39512823
2.39041438
2.38571251
2.38101124
2.37631132
2.37162700
2.36693964
2.36225728
2.35758648
2.35291703
2.34825911
2.34359855
2.33894297
2.33429892
2.32965586
2.32502466
2.32039084
2.31576886
2.31114789
2.30653513
2.30192338
2.29732345
2.29272415
2.28813342
2.28354370
2.27896540
2.27438489
2.26981579
2.26524806
2.26068815
2.25612962
2.25158246
2.24704345
2.24249835
2.23796851
2.23343615
2.22891547
2.22440292
2.21988433
2.21538093
2.21087504
2.20638045
2.20189430
2.19740567
2.19292480
2.18845236
2.18398062
2.17951731
2.17505822
2.17060720
2.16615759
2.16171568
2.15727834
2.15284206
2.14841732
2.14399713
2.13958149
2.13517040
2.13076040
2.12636188
2.12196791
2.11758159
2.11319670
2.10881291
2.10444021
2.10007240
2.09570878
2.09135314
2.08699894
2.08264893
2.07830688
2.07396971
2.06964014
2.06531168
2.06099117
2.05667517
2.05236711
2.04806016
2.04376079
2.03946628
2.03517628
2.03089385
2.02660950
2.02233643
2.01806754
2.01380349
2.00954361
2.00529195
2.00104780
1.99680480
1.99256631
1.98833566
1.98410951
1.97988485
1.97567070
1.97145804
1.96724988
1.96304953
1.95885368
1.95466232
1.95047544
1.94629935
1.94212476
1.93795431
1.93378868
1.92963050
1.92547383
1.92132461
1.91718315
1.91304320
1.90891067
1.90477934
1.90065576
1.89654319
1.89242854
1.88831835
1.88421590
1.88012083
1.87602730
1.87194147
1.86785685
1.86378285
1.85971039
1.85564238
1.85158497
1.84752553
1.84347411
1.83943002
1.83538716
1.83135228
1.82732442
1.82329521
1.81927333
1.81526230
1.81124929
1.80724712
1.80324618
1.79924935
1.79526046
1.79127600
1.78729882
1.78332321
1.77935519
1.77538811
1.77142893
1.76747701
1.76352352
1.75958359
1.75564177
1.75171066
1.74777798
1.74385851
1.73993780
1.73602432
1.73211805
1.72821338
1.72431623
1.72042037
1.71653513
1.71264807
1.70877132
1.70490205
1.70103129
1.69716802
1.69330884
1.68945744
1.68561012
1.68176411
1.67792864
1.67409785
1.67026807
1.66644574
1.66263085
1.65881421
1.65500807
1.65120631
1.64740891
1.64361284
1.63982693
1.63604568
1.63226850
1.62849295
1.62472784
1.62096677
1.61721006
1.61345802
1.60970702
1.60596369
1.60222742
1.59849551
1.59476795
1.59104174
1.58732588
1.58361137
1.57990420
1.57620435
1.57250587
1.56881440
1.56512460
1.56143914
1.55776099
1.55408718
1.55042037
1.54675789
1.54310003
1.53944621
1.53579966
1.53215479
1.52851690
1.52488333
1.52125408
1.51763208
1.51401177
1.51039811
1.50678907
1.50318434
1.49958684
1.49599075
1.49240187
1.48881701
1.48523675
1.48166369
1.47809754
1.47453280
1.47097264
1.46741651
1.46386496
1.46032031
1.45677994
1.45324416
1.44971526
1.44619064
1.44266745
1.43915142
1.43563967
1.43213221
1.42863472
1.42513839
1.42164662
1.41815914
1.41468131
1.41120238
1.40773028
1.40425992
1.40080199
1.39734299
1.39388799
1.39044034
1.38699948
1.38356009
1.38012776
1.37669969
1.37327588
1.36985634
1.36644384
1.36303282
1.35962883
1.35623186
1.35283638
1.34944515
1.34606066
1.34268070
1.33930746
1.33593599
1.33257123
1.32920825
1.32585199
1.32250270
1.31915246
1.31581437
1.31247506
1.30914544
1.30581461
1.30249616
1.29917652
1.29586382
1.29255534
1.28925379
1.28595108
1.28266040
1.27936884
1.27608686
1.27280884
1.26952995
1.26626303
1.26299526
1.25973676
1.25648248
1.25322736
1.24998416
1.24673985
1.24350506
1.24027447
1.23704307
1.23382326
1.23060528
1.22739150
1.22418455
1.22098180
1.21778062
1.21458626
1.21139845
1.20821508
1.20503069
1.20185806
1.19868700
1.19552299
1.19235772
1.18920441
1.18605295
1.18290541
1.17976463
1.17662288
1.17349303
1.17036478
1.16724071
1.16412337
1.16101020
1.15789609
1.15479382
1.15169291
1.14859896
1.14550917
1.14242330
1.13934184
1.13626428
1.13319367
1.13012192
1.12705962
1.12400375
1.12094951
1.11790194
1.11485625
1.11181698
1.10878436
1.10575338
1.10272879
1.09970635
1.09669005
1.09367814
1.09067285
1.08766922
1.08467196
1.08167908
1.07869034
1.07571041
1.07272968
1.06975579
1.06678578
1.06382015
1.06085839
1.05790321
1.05494996
1.05200303
1.04906484
1.04612638
1.04319399
1.04026378
1.03733986
1.03441982
1.03150895
1.02859738
1.02569232
1.02279113
1.01989429
1.01700371
1.01411747
1.01123271
1.00835468
1.00548289
1.00261306
0.99974947
0.99689235
0.99403694
0.99118327
0.98833842
0.98549765
0.98266098
0.97982839
0.97700224
0.97417783
0.97136219
0.96854595
0.96573590
0.96293249
0.96013083
0.95733302
0.95454416
0.95175683
0.94897588
0.94619692
0.94342642
0.94065561
0.93789324
0.93513264
0.93237610
0.92962592
0.92687981
0.92414004
0.92139977
0.91867039
0.91594052
0.91321924
0.91050179
0.90778409
0.90507723
0.90236967
0.89966865
0.89697168
0.89428077
0.89159391
0.88890907
0.88623253
0.88355557
0.88088733
0.87822290
0.87556029
0.87290616
0.87025605
0.86760555
0.86496351
0.86232771
0.85969152
0.85706355
0.85443982
0.85181572
0.84920223
0.84659035
0.84398489
0.84137888
0.83878146
0.83619001
0.83360040
0.83101286
0.82843344
0.82585804
0.82328686
0.82072163
0.81815610
0.81559888
0.81304566
0.81049645
0.80795124
0.80541194
0.80287473
0.80034152
0.79781444
0.79529135
0.79277416
0.79025906
0.78774985
0.78524485
0.78274362
0.78024848
0.77775544
0.77526827
0.77278508
0.77030608
0.76783294
0.76535962
0.76289444
0.76043324
0.75797808
0.75552482
0.75307761
0.75063415
0.74819488
0.74575957
0.74332823
0.74090066
0.73847930
0.73606190
0.73364827
0.73123880
0.72883309
0.72643337
0.72403983
0.72164803
0.71926017
0.71687628
0.71449835
0.71212457
0.70975254
0.70739026
0.70502812
0.70267193
0.70031770
0.69796940
0.69562702
0.69328838
0.69095191
0.68862134
0.68629649
0.68397380
0.68165485
0.67934004
0.67703287
0.67472768
0.67242661
0.67013122
0.66783782
0.66555029
0.66326861
0.66098892
0.65871142
0.65644324
0.65417551
0.65191324
0.64965700
0.64740275
0.64515605
0.64290963
0.64066713
0.63843235
0.63619938
0.63397411
0.63174915
0.62953169
0.62731454
0.62510300
0.62289911
0.62069556
0.61849759
0.61630353
0.61411522
0.61192894
0.60974842
0.60757179
0.60540090
0.60323390
0.60106710
0.59890953
0.59675235
0.59460272
0.59245332
0.59031310
0.58817493
0.58603901
0.58391042
0.58178588
0.57966141
0.57754625
0.57543153
0.57332231
0.57121876
0.56911728
0.56702146
0.56492950
0.56284320
0.56075719
0.55867861
0.55660389
0.55453126
0.55246427
0.55040271
0.54834519
0.54628976
0.54423977
0.54219381
0.54015327
0.53811658
0.53608043
0.53405144
0.53202647
0.53000691
0.52799118
0.52597929
0.52396798
0.52196378
0.51996496
0.51796860
0.51597746
0.51399031
0.51200700
0.51002923
0.50805358
0.50608329
0.50411362
0.50215116
0.50019404
0.49823923
0.49628976
0.49434260
0.49240077
0.49046442
0.48853040
0.48660003
0.48467513
0.48275405
0.48083695
0.47892350
0.47701550
0.47510967
0.47321240
0.47131583
0.46942306
0.46753410
0.46565057
0.46376906
0.46189314
0.46002102
0.45815414
0.45628962
0.45443194
0.45257662
0.45072493
0.44887703
0.44703309
0.44519437
0.44336102
0.44152988
0.43970252
0.43787911
0.43606231
0.43424788
0.43243583
0.43062882
0.42882885
0.42702955
0.42523557
0.42344383
0.42166035
0.41987770
0.41809868
0.41632665
0.41455671
0.41278916
0.41102980
0.40927116
0.40751644
0.40576836
0.40402254
0.40228048
0.40054383
0.39880929
0.39708151
0.39535598
0.39363273
0.39191754
0.39020329
0.38849575
0.38678900
0.38508896
0.38339104
0.38169996
0.38000968
0.37832594
0.37664316
0.37496689
0.37329306
0.37162572
0.36995923
0.36829936
0.36664193
0.36498953
0.36333943
0.36169449
0.36005329
0.35841724
0.35678492
0.35515490
0.35353004
0.35191030
0.35029147
0.34867904
0.34706907
0.34546422
0.34386435
0.34226554
0.34067310
0.33908450
0.33749810
0.33591832
0.33434072
0.33276821
0.33119818
0.32963309
0.32807170
0.32651538
0.32496004
0.32341113
0.32186591
0.32032439
0.31878524
0.31725246
0.31572325
0.31419786
0.31267616
0.31115684
0.30964240
0.30813311
0.30662738
0.30512546
0.30362710
0.30213256
0.30064288
0.29915441
0.29767210
0.29619346
0.29471851
0.29324853
0.29178094
0.29031831
0.28885936
0.28740408
0.28595247
0.28450581
0.28306281
0.28162223
0.28018770
0.27875572
0.27732740
0.27590387
0.27448288
0.27306681
0.27165427
0.27024663
0.26884154
0.26744121
0.26604344
0.26465043
0.26326230
0.26187781
0.26049698
0.25911858
0.25774517
0.25637529
0.25501014
0.25364756
0.25229101
0.25093690
0.24958645
0.24823951
0.24689634
0.24555682
0.24422316
0.24289209
0.24156465
0.24024073
0.23892277
0.23760624
0.23629438
0.23498627
0.23368282
0.23238300
0.23108566
0.22979423
0.22850529
0.22721883
0.22593725
0.22466132
0.22338799
0.22211716
0.22085219
0.21958972
0.21833297
0.21707773
0.21582611
0.21458130
0.21333690
0.21209930
0.21086322
0.20963065
0.20840386
0.20717969
0.20596010
0.20474304
0.20353173
0.20232198
0.20111786
0.19991627
0.19871934
0.19752495
0.19633626
0.19514906
0.19396755
0.19278859
0.19161416
0.19044342
0.18927627
0.18811363
0.18695364
0.18579817
0.18464536
0.18349807
0.18235345
0.18121230
0.18007574
0.17894185
0.17781245
0.17668762
0.17556446
0.17444678
0.17333266
0.17222112
0.17111513
0.17001172
0.16891275
0.16781648
0.16672474
0.16563656
0.16455099
0.16347080
0.16239427
0.16132120
0.16025179
0.15918498
0.15812353
0.15706478
0.15601043
0.15495963
0.15391155
0.15286785
0.15182863
0.15079296
0.14976083
0.14873225
0.14770638
0.14668489
0.14566775
0.14465344
0.14364338
0.14263785
0.14163496
0.14063561
0.13964059
0.13864919
0.13766124
0.13667691
0.13569611
0.13471962
0.13374588
0.13277645
0.13181054
0.13084825
0.12989025
0.12893492
0.12798397
0.12703653
0.12609261
0.12515230
0.12421618
0.12328290
0.12235381
0.12142831
0.12050633
0.11958786
0.11867290
0.11776300
0.11685588
0.11595226
0.11505207
0.11415547
0.11326317
0.11237509
0.11148971
0.11060791
0.10972954
0.10885467
0.10798485
0.10711783
0.10625345
0.10539334
0.10453673
0.10368514
0.10283628
0.10199014
0.10114901
0.10031061
0.09947644
0.09864502
0.09781849
0.09699404
0.09617381
0.09535845
0.09454518
0.09373532
0.09293047
0.09212829
0.09133030
0.09053514
0.08974339
0.08895653
0.08817250
0.08739257
0.08661541
0.08584172
0.08507219
0.08430613
0.08354421
0.08278439
0.08203008
0.08127787
0.08052979
0.07978511
0.07904462
0.07830625
0.07757327
0.07684248
0.07611580
0.07539251
0.07467332
0.07395635
0.07324471
0.07253592
0.07182989
0.07112857
0.07043006
0.06973569
0.06904469
0.06835652
0.06767302
0.06699173
0.06631511
0.06564193
0.06497157
0.06430579
0.06364351
0.06298405
0.06232803
0.06167598
0.06102741
0.06038227
0.05974050
0.05910279
0.05846844
0.05783701
0.05720951
0.05658600
0.05596534
0.05534816
0.05473490
0.05412506
0.05351864
0.05291617
0.05231657
0.05172039
0.05112816
0.05053934
0.04995393
0.04937246
0.04879439
0.04821915
0.04764737
0.04707952
0.04651553
0.04595448
0.04539735
0.04484355
0.04429316
0.04374621
0.04320261
0.04266290
0.04212614
0.04159322
0.04106368
0.04053759
0.04001531
0.03949595
0.03898045
0.03846833
0.03795960
0.03745426
0.03695230
0.03645413
0.03595894
0.03546758
0.03497960
0.03449584
0.03401461
0.03353672
0.03306268
0.03259198
0.03212469
0.03166073
0.03120018
0.03074381
0.03029037
0.02984035
0.02939365
0.02895033
0.02851077
0.02807457
0.02764173
0.02721186
0.02678575
0.02636377
0.02594437
0.02552872
0.02511604
0.02470744
0.02430185
0.02389998
0.02350143
0.02310626
0.02271409
0.02232594
0.02194082
0.02155936
0.02118125
0.02080651
0.02043475
0.02006700
0.01970230
0.01934153
0.01898350
0.01862878
0.01827805
0.01793034
0.01758659
0.01724554
0.01690783
0.01657404
0.01624303
0.01591589
0.01559181
0.01527163
0.01495421
0.01464069
0.01432993
0.01402303
0.01371920
0.01341922
0.01312201
0.01282869
0.01253866
0.01225141
0.01196827
0.01168795
0.01141117
0.01113796
0.01086757
0.01060098
0.01033745
0.01007772
0.00982105
0.00956770
0.00931764
0.00907133
0.00882766
0.00858797
0.00835133
0.00811802
0.00788801
0.00766149
0.00743846
0.00721835
0.00700173
0.00678859
0.00657873
0.00637181
0.00616854
0.00596874
0.00577205
0.00557849
0.00538858
0.00520193
0.00501856
0.00483864
0.00466183
0.00448815
0.00431807
0.00415126
0.00398773
0.00382749
0.00367065
0.00351695
0.00336668
0.00321966
0.00307579
0.00293531
0.00279813
0.00266432
0.00253379
0.00240651
0.00228251
0.00216176
0.00204430
0.00193019
0.00181924
0.00171166
0.00160733
0.00150627
0.00140855
0.00131400
0.00122280
0.00113485
0.00105015
0.00096870
0.00089059
0.00081571
0.00074409
0.00067565
0.00061053
0.00054865
0.00049007
0.00043469
0.00038265
0.00033380
0.00028819
0.00024582
0.00020670
0.00017082
0.00013823
0.00010886
0.00008271
0.00005981
0.00004014
0.00002373
0.00001053
0.00000057
-0.00000616
-0.00000965
-0.00000993
-0.00000697
-0.00000079
0.00000861
0.00002124
0.00003708
0.00005615
0.00007846
0.00010393
0.00013264
0.00016458
0.00019970
0.00023806
0.00027965
0.00032437
0.00037238
0.00042352
0.00047792
0.00053553
0.00059624
0.00066027
0.00072739
0.00079777
0.00087129
0.00094808
0.00102801
0.00111114
0.00119738
0.00128699
0.00137964
0.00147556
0.00157451
0.00167683
0.00178216
0.00189088
0.00200259
0.00211760
0.00223558
0.00235686
0.00248133
0.00260900
0.00273983
0.00287375
0.00301073
0.00315112
0.00329459
0.00344111
0.00359093
0.00374380
0.00389984
0.00405906
0.00422147
0.00438689
0.00455580
0.00472741
0.00490235
