corrn_curve_cubic
0.61809215
0.61779476
0.61749689
0.61719937
0.61690136
0.61660371
0.61630598
0.61600819
0.61571031
0.61541237
0.61511478
0.61481671
0.61451899
0.61422076
0.61392290
0.61362496
0.61332696
0.61302889
0.61273115
0.61243294
0.61213509
0.61183674
0.61153916
0.61124108
0.61094296
0.61064474
0.61034645
0.61004853
0.60975013
0.60945207
0.60915394
0.60885574
0.60855747
0.60825913
0.60796114
0.60766267
0.60736456
0.60706638
0.60676770
0.60646936
0.60617098
0.60587294
0.60557440
0.60527581
0.60497756
0.60467925
0.60438087
0.60408198
0.60378390
0.60348532
0.60318666
0.60288838
0.60258959
0.60229114
0.60199265
0.60169409
0.60139544
0.60109675
0.60079797
0.60049913
0.60020109
0.59990210
0.59960348
0.59930480
0.59900563
0.59870724
0.59840835
0.59810984
0.59781081
0.59751214
0.59721342
0.59691463
0.59661575
0.59631683
0.59601784
0.59571920
0.59542005
0.59512130
0.59482245
0.59452354
0.59422415
0.59392553
0.59362644
0.59332726
0.59302802
0.59272915
0.59243063
0.59213118
0.59183211
0.59153297
0.59123375
0.59093489
0.59063556
0.59033657
0.59003754
0.58973820
0.58943902
0.58913999
0.58884047
0.58854153
0.58824230
0.58794322
0.58764364
0.58734443
0.58704514
0.58674558
0.58644640
0.58614712
0.58584803
0.58554862
0.58524896
0.58494964
0.58465028
0.58435106
0.58405155
0.58375197
0.58345255
0.58315309
0.58285373
0.58255434
0.58225488
0.58195491
0.58165554
0.58135588
0.58105635
0.58075701
0.58045736
0.58015788
0.57985832
0.57955872
0.57925902
0.57895949
0.57865967
0.57835980
0.57806007
0.57776050
0.57746064
0.57716094
0.57686118
0.57656157
0.57626165
0.57596191
0.57566253
0.57536267
0.57506294
0.57476317
0.57446331
0.57416341
0.57386342
0.57356359
0.57326372
0.57296376
0.57266374
0.57236388
0.57206417
0.57176438
0.57146433
0.57116421
0.57086425
0.57056423
0.57026457
0.56996442
0.56966440
0.56936435
0.56906421
0.56876445
0.56846420
0.56816410
0.56786393
0.56756371
0.56726384
0.56696370
0.56666350
0.56636369
0.56606336
0.56576319
0.56546296
0.56516287
0.56486274
0.56456232
0.56426227
0.56396192
0.56366176
0.56336174
0.56306121
0.56276129
0.56246088
0.56216038
0.56186027
0.56155988
0.56125942
0.56095934
0.56065876
0.56035876
0.56005805
0.55975796
0.55945755
0.55915733
0.55885659
0.55855645
0.55825579
0.55795552
0.55765499
0.55735482
0.55705414
0.55675385
0.55645305
0.55615286
0.55585216
0.55555184
0.55525102
0.55495081
0.55465028
0.55434950
0.55404910
0.55374840
0.55344788
0.55314750
0.55284663
0.55254613
0.55224579
0.55194494
0.55164448
0.55134396
0.55104295
0.55074254
0.55044183
0.55014107
0.54984044
0.54953978
0.54923929
0.54893828
0.54863764
0.54833696
0.54803642
0.54773540
0.54743474
0.54713402
0.54683324
0.54653220
0.54623152
0.54593079
0.54562999
0.54532937
0.54502845
0.54472747
0.54442666
0.54412579
0.54382507
0.54352430
0.54322346
0.54292257
0.54262161
0.54232083
0.54201954
0.54171862
0.54141786
0.54111682
0.54081597
0.54051504
0.54021427
0.53991322
0.53961234
0.53931137
0.53901036
0.53870930
0.53840840
0.53810722
0.53780618
0.53750534
0.53720418
0.53690321
0.53660216
0.53630108
0.53599991
0.53569914
0.53539809
0.53509697
0.53479579
0.53449479
0.53419372
0.53389237
0.53359118
0.53329040
0.53298932
0.53268817
0.53238697
0.53208572
0.53178439
0.53148369
0.53118226
0.53088121
0.53057989
0.53027849
0.52997773
0.52967644
0.52937512
0.52907371
0.52877271
0.52847142
0.52817007
0.52786910
0.52756786
0.52726634
0.52696542
0.52666401
0.52636275
0.52606168
0.52576030
0.52545888
0.52515762
0.52485629
0.52455493
0.52425372
0.52395222
0.52365113
0.52334974
0.52304807
0.52274703
0.52244547
0.52214430
0.52184285
0.52154158
0.52124002
0.52093862
0.52063740
0.52033588
0.52003455
0.51973291
0.51943168
0.51913018
0.51882883
0.51852765
0.51822596
0.51792467
0.51762309
0.51732168
0.51702022
0.51671893
0.51641756
0.51611570
0.51581447
0.51551272
0.51521136
0.51491017
0.51460825
0.51430695
0.51400558
0.51370373
0.51340248
0.51310095
0.51279916
0.51249774
0.51219648
0.51189452
0.51159317
0.51129173
0.51099027
0.51068852
0.51038694
0.51008552
0.50978406
0.50948208
0.50918072
0.50887907
0.50857763
0.50827610
0.50797405
0.50767266
0.50737096
0.50706944
0.50676787
0.50646647
0.50616454
0.50586280
0.50556123
0.50525958
0.50495814
0.50465640
0.50435482
0.50405321
0.50375151
0.50345002
0.50314799
0.50284638
0.50254470
0.50224296
0.50194119
0.50163958
0.50133791
0.50103618
0.50073440
0.50043280
0.50013114
0.49982943
0.49952764
0.49922581
0.49892417
0.49862268
0.49832116
0.49801932
0.49771746
0.49741575
0.49711401
0.49681219
0.49651031
0.49620862
0.49590689
0.49560532
0.49530346
0.49500178
0.49469981
0.49439803
0.49409618
0.49379473
0.49349301
0.49319100
0.49288915
0.49258727
0.49228578
0.49198403
0.49168196
0.49138009
0.49107862
0.49077663
0.49047481
0.49017294
0.48987125
0.48956951
0.48926750
0.48896586
0.48866396
0.48836200
0.48806045
0.48775860
0.48745648
0.48715501
0.48685299
0.48655095
0.48624929
0.48594738
0.48564585
0.48534380
0.48504172
0.48474004
0.48443806
0.48413650
0.48383442
0.48353276
0.48323081
0.48292904
0.48262698
0.48232534
0.48202338
0.48172164
0.48141960
0.48111796
0.48081582
0.48051407
0.48021206
0.47991020
0.47960808
0.47930636
0.47900482
0.47870252
0.47840088
0.47809870
0.47779695
0.47749539
0.47719306
0.47689139
0.47658919
0.47628739
0.47598580
0.47568368
0.47538172
0.47507997
0.47477790
0.47447605
0.47417412
0.47387237
0.47357036
0.47326851
0.47296661
0.47266441
0.47236264
0.47206082
0.47175894
0.47145702
0.47115480
0.47085301
0.47055116
0.47024948
0.46994753
0.46964529
0.46934345
0.46904158
0.46873964
0.46843788
0.46813586
0.46783376
0.46753185
0.46722991
0.46692813
0.46662606
0.46632418
0.46602225
0.46572050
0.46541847
0.46511660
0.46481470
0.46451275
0.46421096
0.46390867
0.46360680
0.46330486
0.46300289
0.46270084
0.46239901
0.46209734
0.46179538
0.46149337
0.46119155
0.46088968
0.46058754
0.46028578
0.45998375
0.45968167
0.45937978
0.45907784
0.45877585
0.45847381
0.45817218
0.45787027
0.45756829
0.45726629
0.45696445
0.45666234
0.45636040
0.45605865
0.45575663
0.45545478
0.45515263
0.45485068
0.45454916
0.45424710
0.45394500
0.45364308
0.45334133
0.45303931
0.45273749
0.45243537
0.45213366
0.45183168
0.45152966
0.45122804
0.45092589
0.45062395
0.45032218
0.45002012
0.44971827
0.44941657
0.44911438
0.44881237
0.44851078
0.44820866
0.44790697
0.44760499
0.44730294
0.44700111
0.44669922
0.44639750
0.44609552
0.44579372
0.44549161
0.44518972
0.44488800
0.44458577
0.44428418
0.44398207
0.44368039
0.44337820
0.44307664
0.44277459
0.44247271
0.44217100
0.44186903
0.44156725
0.44126517
0.44096353
0.44066136
0.44035960
0.44005803
0.43975595
0.43945407
0.43915211
0.43885037
0.43854855
0.43824645
0.43794478
0.43764309
0.43734108
0.43703927
0.43673765
0.43643549
0.43613377
0.43583201
0.43553019
0.43522808
0.43492639
0.43462467
0.43432288
0.43402083
0.43371920
0.43341751
0.43311577
0.43281401
0.43251193
0.43221006
0.43190837
0.43160663
0.43130485
0.43100277
0.43070113
0.43039920
0.43009746
0.42979592
0.42949409
0.42919242
0.42889050
0.42858852
0.42828674
0.42798491
0.42768326
0.42738155
0.42707982
0.42677802
0.42647642
0.42617455
0.42587285
0.42557110
0.42526931
0.42496771
0.42466585
0.42436413
0.42406239
0.42376060
0.42345901
0.42315713
0.42285544
0.42255369
0.42225191
0.42195032
0.42164891
0.42134721
0.42104549
0.42074369
0.42044187
0.42014023
0.41983854
0.41953682
0.41923528
0.41893369
0.41863181
0.41833013
0.41802840
0.41772662
0.41742529
0.41712364
0.41682197
0.41652025
0.41621895
0.41591714
0.41561550
0.41531360
0.41501235
0.41471060
0.41440878
0.41410718
0.41380575
0.41350403
0.41320251
0.41290095
0.41259934
0.41229768
0.41199622
0.41169447
0.41139292
0.41109156
0.41078992
0.41048823
0.41018672
0.40988518
0.40958382
0.40928219
0.40898074
0.40867902
0.40837747
0.40807613
0.40777427
0.40747308
0.40717135
0.40687007
0.40656825
0.40626712
0.40596545
0.40566399
0.40536248
0.40506117
0.40475932
0.40445814
0.40415645
0.40385520
0.40355389
0.40325206
0.40295090
0.40264923
0.40234797
0.40204668
0.40174487
0.40144373
0.40114205
0.40084082
0.40053955
0.40023776
0.39993661
0.39963520
0.39933375
0.39903249
0.39873119
0.39842960
0.39812821
0.39782700
0.39752577
0.39722400
0.39692290
0.39662151
0.39632035
0.39601862
0.39571759
0.39541629
0.39511492
0.39481376
0.39451206
0.39421105
0.39390975
0.39360841
0.39330727
0.39300609
0.39270436
0.39240334
0.39210200
0.39180088
0.39149972
0.39119850
0.39089725
0.39059593
0.39029485
0.38999319
0.38969202
0.38939102
0.38908973
0.38878865
0.38848730
0.38818612
0.38788515
0.38758389
0.38728281
0.38698149
0.38668032
0.38637913
0.38607815
0.38577687
0.38547577
0.38517466
0.38487350
0.38457277
0.38427150
0.38397046
0.38366935
0.38336822
0.38306702
0.38276603
0.38246477
0.38216369
0.38186304
0.38156190
0.38126092
0.38095969
0.38065864
0.38035753
0.38005689
0.37975571
0.37945474
0.37915370
0.37885265
0.37855177
0.37825088
0.37794966
0.37764868
0.37734788
0.37704682
0.37674593
0.37644525
0.37614428
0.37584302
0.37554221
0.37524136
0.37494047
0.37463953
0.37433880
0.37403778
0.37373722
0.37343611
0.37313518
0.37283449
0.37253351
0.37223245
0.37193188
0.37163099
0.37133031
0.37102936
0.37072885
0.37042782
0.37012722
0.36982632
0.36952539
0.36922466
0.36892389
0.36862333
0.36832222
0.36802183
0.36772089
0.36742041
0.36711986
0.36681880
0.36651844
0.36621752
0.36591683
0.36561609
0.36531554
0.36501495
0.36471410
0.36441367
0.36411270
0.36381222
0.36351167
0.36321083
0.36291045
0.36261002
0.36230906
0.36200855
0.36170825
0.36140741
0.36110700
0.36080658
0.36050561
0.36020536
0.35990479
0.35960445
0.35930354
0.35900312
0.35870289
0.35840236
0.35810156
0.35780120
0.35750080
0.35720038
0.35690015
0.35659937
0.35629906
0.35599871
0.35569831
0.35539787
0.35509762
0.35479710
0.35449654
0.35419619
0.35389579
0.35359559
0.35329512
0.35299483
0.35269453
0.35239416
0.35209400
0.35179357
0.35149333
0.35119305
0.35089276
0.35059265
0.35029199
0.34999180
0.34969157
0.34939155
0.34909124
0.34879114
0.34849097
0.34819079
0.34789056
0.34759030
0.34728997
0.34698988
0.34668975
0.34638955
0.34608934
0.34578906
0.34548899
0.34518917
0.34488902
0.34458883
0.34428861
0.34398859
0.34368856
0.34338822
0.34308856
0.34278839
0.34248843
0.34218817
0.34188813
0.34158830
0.34128841
0.34098825
0.34068830
0.34038854
0.34008852
0.33978842
0.33948831
0.33918865
0.33888869
0.33858872
0.33828893
0.33798886
0.33768899
0.33738934
0.33708940
0.33678919
0.33648965
0.33618961
0.33588974
0.33559011
0.33529018
0.33499070
0.33469069
0.33439064
0.33409107
0.33379117
0.33349175
0.33319180
0.33289230
0.33259227
0.33229243
0.33199306
0.33169317
0.33139347
0.33109373
0.33079421
0.33049439
0.33019479
0.32989515
0.32959572
0.32929626
0.32899624
0.32869693
0.32839709
0.32809773
0.32779781
0.32749860
0.32719909
0.32689932
0.32659999
0.32630064
0.32600073
0.32570153
0.32540182
0.32510230
0.32480299
0.32450339
0.32420400
0.32390458
0.32360537
0.32330562
0.32300634
0.32270701
0.32240740
0.32210800
0.32180879
0.32150957
0.32121006
0.32091074
0.32061140
0.32031226
0.32001308
0.31971337
0.31941411
0.31911484
0.31881577
0.31851665
0.31821750
0.31791782
0.31761859
0.31731955
0.31702027
0.31672115
0.31642203
0.31612286
0.31582392
0.31552467
0.31522563
0.31492605
0.31462696
0.31432805
0.31402888
0.31372990
0.31343065
0.31313159
0.31283275
0.31253365
0.31223448
0.31193553
0.31163654
0.31133754
0.31103848
0.31073964
0.31044050
0.31014207
0.30984311
0.30954412
0.30924509
0.30894627
0.30864714
0.30834826
0.30804933
0.30775060
0.30745160
0.30715306
0.30685424
0.30655536
0.30625645
0.30595752
0.30565879
0.30536027
0.30506147
0.30476262
0.30446377
0.30416534
0.30386664
0.30356767
0.30326887
0.30297058
0.30267174
0.30237311
0.30207419
0.30177598
0.30147725
0.30117845
0.30088015
0.30058154
0.30028266
0.29998448
0.29968576
0.29938702
0.29908874
0.29879017
0.29849155
0.29819319
0.29789450
0.29759629
0.29729779
0.29699900
0.29670091
0.29640230
0.29610417
0.29580549
0.29550728
0.29520876
0.29491074
0.29461217
0.29431406
0.29401541
0.29371722
0.29341877
0.29312076
0.29282221
0.29252413
0.29222579
0.29192764
0.29162920
0.29133098
0.29103273
0.29073470
0.29043663
0.29013826
0.28984012
0.28954221
0.28924374
0.28894572
0.28864744
0.28834938
0.28805151
0.28775312
0.28745519
0.28715724
0.28685898
0.28656122
0.28626314
0.28596529
0.28566717
0.28536924
0.28507128
0.28477354
0.28447525
0.28417744
0.28387960
0.28358172
0.28328355
0.28298586
0.28268810
0.28239034
0.28209255
0.28179446
0.28149656
0.28119892
0.28090122
0.28060350
0.28030573
0.28000794
0.27971036
0.27941224
0.27911459
0.27881690
0.27851917
0.27822167
0.27792388
0.27762631
0.27732870
0.27703106
0.27673338
0.27643593
0.27613845
0.27584067
0.27554335
0.27524576
0.27494813
0.27465071
0.27435301
0.27405554
0.27375801
0.27346071
0.27316314
0.27286576
0.27256812
0.27227068
0.27197346
0.27167621
0.27137892
0.27108134
0.27078401
0.27048662
0.27018943
0.26989197
0.26959500
0.26929774
0.26900044
0.26870307
0.26840570
0.26810830
0.26781136
0.26751415
0.26721690
0.26691959
0.26662278
0.26632543
0.26602828
0.26573112
0.26543417
0.26513718
0.26483989
0.26454310
0.26424601
0.26394862
0.26365149
0.26335479
0.26305782
0.26276056
0.26246379
0.26216672
0.26187012
0.26157298
0.26127581
0.26097937
0.26068213
0.26038562
0.26008858
0.25979147
0.25949486
0.25919798
0.25890130
0.25860432
0.25830783
0.25801082
0.25771426
0.25741742
0.25712080
0.25682388
0.25652745
0.25623047
0.25593398
0.25563719
0.25534061
0.25504401
0.25474739
0.25445097
0.25415427
0.25385778
0.25356102
0.25326473
0.25296817
0.25267154
0.25237515
0.25207849
0.25178203
0.25148580
0.25118903
0.25089274
0.25059641
0.25029978
0.25000365
0.24970722
0.24941100
0.24911450
0.24881823
0.24852194
0.24822534
0.24792922
0.24763308
0.24733689
0.24704069
0.24674419
0.24644816
0.24615187
0.24585577
0.24555965
0.24526325
0.24496706
0.24467110
0.24437510
0.24407907
0.24378301
0.24348668
0.24319056
0.24289464
0.24259848
0.24230249
0.24200676
0.24171074
0.24141468
0.24111883
0.24082297
0.24052706
0.24023113
0.23993518
0.23963943
0.23934341
0.23904759
0.23875175
0.23845589
0.23816025
0.23786430
0.23756859
0.23727285
0.23697707
0.23668129
0.23638569
0.23608984
0.23579417
0.23549850
0.23520279
0.23490706
0.23461129
0.23431599
0.23402042
0.23372482
0.23342916
0.23313349
0.23283806
0.23254284
0.23224732
0.23195179
0.23165620
0.23136058
0.23106546
0.23077007
0.23047436
0.23017888
0.22988337
0.22958835
0.22929304
0.22899744
0.22870233
0.22840692
0.22811175
0.22781628
0.22752129
0.22722575
0.22693046
0.22663563
0.22634027
0.22604485
0.22574996
0.22545474
0.22515976
0.22486450
0.22456919
0.22427438
0.22397930
0.22368442
0.22338925
0.22309405
0.22279908
0.22250408
0.22220932
0.22191399
0.22161943
0.22132431
0.22102942
0.22073447
0.22043978
0.22014453
0.21985002
0.21955498
0.21926017
0.21896530
0.21867067
0.21837550
0.21808107
0.21778637
0.21749135
0.21719683
0.21690201
0.21660745
0.21631284
0.21601793
0.21572352
0.21542854
0.21513407
0.21483957
0.21454477
0.21425045
0.21395612
0.21366150
0.21336684
0.21307240
0.21277795
0.21248347
0.21218893
0.21189465
0.21160032
0.21130572
0.21101133
0.21071717
0.21042271
0.21012826
0.20983401
0.20953973
0.20924542
0.20895135
0.20865698
0.20836258
0.20806841
0.20777422
0.20748000
0.20718601
0.20689199
0.20659765
0.20630331
0.20600920
0.20571530
0.20542113
0.20512720
0.20483321
0.20453919
0.20424517
0.20395109
0.20365725
0.20336314
0.20306924
0.20277531
0.20248138
0.20218765
0.20189363
0.20159985
0.20130604
0.20101219
0.20071832
0.20042442
0.20013073
0.19983676
0.19954304
0.19924929
0.19895601
0.19866220
0.19836833
0.19807472
0.19778106
0.19748740
0.19719368
0.19689995
0.19660671
0.19631317
0.19601962
0.19572602
0.19543239
0.19513900
0.19484558
0.19455213
0.19425838
0.19396487
0.19367187
0.19337830
0.19308498
0.19279135
0.19249820
0.19220479
0.19191161
0.19161837
0.19132514
0.19103160
0.19073855
0.19044523
0.19015211
0.18985897
0.18956583
0.18927236
0.18897940
0.18868617
0.18839340
0.18810011
0.18780677
0.18751393
0.18722080
0.18692817
0.18663498
0.18634176
0.18604902
0.18575577
0.18546297
0.18516991
0.18487732
0.18458420
0.18429158
0.18399840
0.18370570
0.18341273
0.18312024
0.18282718
0.18253467
0.18224209
0.18194895
0.18165659
0.18136369
0.18107100
0.18077855
0.18048553
0.18019303
0.17990022
0.17960793
0.17931534
0.17902272
0.17873007
0.17843791
0.17814494
0.17785274
0.17756022
0.17726770
0.17697516
0.17668282
0.17639073
0.17609810
0.17580570
0.17551353
0.17522132
0.17492857
0.17463631
0.17434429
0.17405197
0.17375938
0.17346733
0.17317520
0.17288304
0.17259112
0.17229890
0.17200639
0.17171438
0.17142232
0.17113027
0.17083818
0.17054631
0.17025416
0.16996226
0.16967031
0.16937808
0.16908607
0.16879405
0.16850226
0.16821046
0.16791861
0.16762673
0.16733482
0.16704291
0.16675122
0.16645923
0.16616748
0.16587570
0.16558390
0.16529234
0.16500048
0.16470886
0.16441722
0.16412552
0.16383382
0.16354237
0.16325086
0.16295935
0.16266754
0.16237595
0.16208435
0.16179298
0.16150133
0.16121017
0.16091871
0.16062725
0.16033574
0.16004420
0.15975266
0.15946160
0.15917025
0.15887887
0.15858747
0.15829603
0.15800512
0.15771363
0.15742238
0.15713111
0.15684006
0.15654873
0.15625765
0.15596652
0.15567538
0.15538422
0.15509328
0.15480206
0.15451079
0.15422004
0.15392901
0.15363793
0.15334710
0.15305599
0.15276483
0.15247419
0.15218300
0.15189230
0.15160130
0.15131028
0.15101978
0.15072870
0.15043811
0.15014725
0.14985664
0.14956573
0.14927506
0.14898434
0.14869389
0.14840287
0.14811235
0.14782155
0.14753124
0.14724038
0.14695002
0.14665911
0.14636870
0.14607801
0.14578782
0.14549732
0.14520680
0.14491625
0.14462570
0.14433538
0.14404527
0.14375464
0.14346423
0.14317404
0.14288358
0.14259337
0.14230313
0.14201286
0.14172254
0.14143250
0.14114188
0.14085202
0.14056190
