corrn_curve_quadratic
0.63572002
0.63543041
0.63514032
0.63485055
0.63456029
0.63427037
0.63398034
0.63369025
0.63340006
0.63310978
0.63281984
0.63252941
0.63223931
0.63194870
0.63165842
0.63136806
0.63107762
0.63078710
0.63049689
0.63020620
0.62991585
0.62962499
0.62933487
0.62904425
0.62875357
0.62846278
0.62817191
0.62788137
0.62759036
0.62729966
0.62700888
0.62671801
0.62642706
0.62613603
0.62584532
0.62555413
0.62526327
0.62497234
0.62468089
0.62438977
0.62409858
0.62380772
0.62351635
0.62322491
0.62293380
0.62264260
0.62235133
0.62205954
0.62176853
0.62147700
0.62118539
0.62089413
0.62060236
0.62031091
0.62001940
0.61972780
0.61943611
0.61914435
0.61885249
0.61856057
0.61826940
0.61797729
0.61768553
0.61739368
0.61710135
0.61680977
0.61651768
0.61622594
0.61593368
0.61564175
0.61534976
0.61505769
0.61476552
0.61447328
0.61418097
0.61388898
0.61359647
0.61330434
0.61301211
0.61271979
0.61242698
0.61213491
0.61184237
0.61154973
0.61125700
0.61096462
0.61067257
0.61037961
0.61008699
0.60979428
0.60950148
0.60920902
0.60891608
0.60862346
0.60833078
0.60803779
0.60774493
0.60745220
0.60715899
0.60686631
0.60657335
0.60628051
0.60598717
0.60569417
0.60540107
0.60510770
0.60481468
0.60452155
0.60422859
0.60393530
0.60364174
0.60334851
0.60305522
0.60276204
0.60246857
0.60217502
0.60188160
0.60158813
0.60129475
0.60100131
0.60070778
0.60041375
0.60012028
0.59982652
0.59953287
0.59923939
0.59894558
0.59865193
0.59835818
0.59806437
0.59777046
0.59747669
0.59718262
0.59688849
0.59659447
0.59630060
0.59600643
0.59571239
0.59541828
0.59512430
0.59483000
0.59453587
0.59424206
0.59394777
0.59365359
0.59335935
0.59306501
0.59277062
0.59247612
0.59218176
0.59188735
0.59159283
0.59129823
0.59100377
0.59070946
0.59041504
0.59012034
0.58982557
0.58953093
0.58923622
0.58894184
0.58864697
0.58835221
0.58805740
0.58776248
0.58746793
0.58717288
0.58687795
0.58658294
0.58628787
0.58599312
0.58569810
0.58540299
0.58510825
0.58481298
0.58451786
0.58422266
0.58392758
0.58363244
0.58333700
0.58304190
0.58274650
0.58245127
0.58215616
0.58186053
0.58156548
0.58126993
0.58097428
0.58067900
0.58038341
0.58008775
0.57979245
0.57949663
0.57920138
0.57890540
0.57861001
0.57831430
0.57801875
0.57772268
0.57742718
0.57713115
0.57683549
0.57653956
0.57624396
0.57594785
0.57565210
0.57535582
0.57506014
0.57476393
0.57446809
0.57417173
0.57387596
0.57357986
0.57328349
0.57298748
0.57269116
0.57239499
0.57209896
0.57180242
0.57150622
0.57121017
0.57091360
0.57061740
0.57032111
0.57002433
0.56972812
0.56943160
0.56913501
0.56883854
0.56854202
0.56824564
0.56794874
0.56765219
0.56735558
0.56705910
0.56676211
0.56646547
0.56616876
0.56587196
0.56557489
0.56527817
0.56498137
0.56468449
0.56438776
0.56409073
0.56379362
0.56349666
0.56319962
0.56290271
0.56260574
0.56230867
0.56201155
0.56171433
0.56141728
0.56111971
0.56082248
0.56052540
0.56022803
0.55993082
0.55963351
0.55933635
0.55903889
0.55874158
0.55844417
0.55814671
0.55784917
0.55755178
0.55725408
0.55695652
0.55665912
0.55636140
0.55606385
0.55576621
0.55546851
0.55517071
0.55487329
0.55457556
0.55427776
0.55397988
0.55368216
0.55338435
0.55308625
0.55278829
0.55249072
0.55219284
0.55189486
0.55159683
0.55129872
0.55100051
0.55070291
0.55040458
0.55010660
0.54980834
0.54950998
0.54921223
0.54891394
0.54861561
0.54831717
0.54801912
0.54772076
0.54742233
0.54712425
0.54682590
0.54652724
0.54622916
0.54593058
0.54563213
0.54533385
0.54503524
0.54473659
0.54443806
0.54413946
0.54384081
0.54354228
0.54324346
0.54294501
0.54264626
0.54234721
0.54204877
0.54174979
0.54145118
0.54115228
0.54085354
0.54055450
0.54025558
0.53995685
0.53965778
0.53935889
0.53905968
0.53876085
0.53846174
0.53816276
0.53786393
0.53756458
0.53726560
0.53696632
0.53666720
0.53636800
0.53606896
0.53576982
0.53547017
0.53517113
0.53487156
0.53457236
0.53427330
0.53397351
0.53367431
0.53337503
0.53307525
0.53277605
0.53247656
0.53217678
0.53187736
0.53157808
0.53127808
0.53097867
0.53067917
0.53037961
0.53007975
0.52978005
0.52948048
0.52918086
0.52888070
0.52858114
0.52828128
0.52798159
0.52768181
0.52738149
0.52708182
0.52678182
0.52648197
0.52618205
0.52588229
0.52558200
0.52528186
0.52498188
0.52468180
0.52438190
0.52408170
0.52378163
0.52348152
0.52318130
0.52288127
0.52258068
0.52228050
0.52198023
0.52167988
0.52137948
0.52107922
0.52077888
0.52047847
0.52017799
0.51987767
0.51957728
0.51927681
0.51897624
0.51867563
0.51837517
0.51807486
0.51777449
0.51747379
0.51717304
0.51687244
0.51657178
0.51627102
0.51597019
0.51566953
0.51536881
0.51506823
0.51476734
0.51446662
0.51416559
0.51386472
0.51356378
0.51326321
0.51296235
0.51266119
0.51236017
0.51205910
0.51175840
0.51145742
0.51115611
0.51085498
0.51055422
0.51025293
0.50995180
0.50965059
0.50934955
0.50904843
0.50874704
0.50844599
0.50814466
0.50784325
0.50754225
0.50724091
0.50693929
0.50663830
0.50633675
0.50603515
0.50573392
0.50543241
0.50513128
0.50482960
0.50452787
0.50422652
0.50392487
0.50362361
0.50332181
0.50302041
0.50271870
0.50241715
0.50211530
0.50181385
0.50151207
0.50121047
0.50090857
0.50060704
0.50030500
0.50000333
0.49970137
0.49939956
0.49909747
0.49879575
0.49849420
0.49819186
0.49789017
0.49758793
0.49728609
0.49698442
0.49668197
0.49638015
0.49607779
0.49577581
0.49547402
0.49517169
0.49486949
0.49456749
0.49426515
0.49396301
0.49366077
0.49335870
0.49305634
0.49275412
0.49245184
0.49214924
0.49184705
0.49154479
0.49124246
0.49094006
0.49063734
0.49033504
0.49003266
0.48973043
0.48942791
0.48912508
0.48882264
0.48852015
0.48821756
0.48791515
0.48761244
0.48730965
0.48700702
0.48670434
0.48640181
0.48609897
0.48579630
0.48549356
0.48519098
0.48488810
0.48458536
0.48428258
0.48397972
0.48367702
0.48337378
0.48307096
0.48276804
0.48246507
0.48216201
0.48185915
0.48155642
0.48125339
0.48095029
0.48064736
0.48034436
0.48004108
0.47973815
0.47943494
0.47913167
0.47882856
0.47852538
0.47822213
0.47791881
0.47761588
0.47731266
0.47700935
0.47670599
0.47640278
0.47609929
0.47579594
0.47549276
0.47518929
0.47488598
0.47458235
0.47427889
0.47397585
0.47367226
0.47336859
0.47306510
0.47276176
0.47245812
0.47215467
0.47185090
0.47154752
0.47124385
0.47094011
0.47063677
0.47033287
0.47002917
0.46972561
0.46942175
0.46911808
0.46881454
0.46851049
0.46820660
0.46790311
0.46759908
0.46729546
0.46699152
0.46668750
0.46638367
0.46607978
0.46577603
0.46547200
0.46516814
0.46486394
0.46455994
0.46425610
0.46395172
0.46364798
0.46334368
0.46303980
0.46273539
0.46243160
0.46212729
0.46182314
0.46151914
0.46121485
0.46091073
0.46060631
0.46030230
0.45999774
0.45969357
0.45938957
0.45908505
0.45878070
0.45847626
0.45817202
0.45786768
0.45756303
0.45725881
0.45695454
0.45664993
0.45634550
0.45604124
0.45573643
0.45543204
0.45512758
0.45482306
0.45451822
0.45421377
0.45390929
0.45360471
0.45329984
0.45299540
0.45269086
0.45238626
0.45208161
0.45177663
0.45147184
0.45116721
0.45086251
0.45055775
0.45025267
0.44994801
0.44964305
0.44933825
0.44903364
0.44872872
0.44842394
0.44811888
0.44781376
0.44750881
0.44720379
0.44689892
0.44659399
0.44628902
0.44598396
0.44567907
0.44537389
0.44506887
0.44476378
0.44445863
0.44415365
0.44384839
0.44354325
0.44323808
0.44293283
0.44262777
0.44232239
0.44201719
0.44171190
0.44140657
0.44110141
0.44079641
0.44049110
0.44018575
0.43988030
0.43957482
0.43926949
0.43896409
0.43865865
0.43835336
0.43804801
0.43774235
0.43743686
0.43713131
0.43682569
0.43652050
0.43621497
0.43590940
0.43560377
0.43529854
0.43499277
0.43468715
0.43438125
0.43407600
0.43377021
0.43346434
0.43315866
0.43285315
0.43254732
0.43224167
0.43193596
0.43163018
0.43132433
0.43101867
0.43071269
0.43040689
0.43010128
0.42979535
0.42948936
0.42918352
0.42887765
0.42857193
0.42826592
0.42796007
0.42765392
0.42734794
0.42704214
0.42673580
0.42643012
0.42612387
0.42581806
0.42551168
0.42520599
0.42489973
0.42459365
0.42428751
0.42398155
0.42367503
0.42336916
0.42306276
0.42275679
0.42245073
0.42214413
0.42183818
0.42153170
0.42122563
0.42091949
0.42061281
0.42030679
0.42000021
0.41969406
0.41938785
0.41908109
0.41877497
0.41846856
0.41816209
0.41785580
0.41754944
0.41724277
0.41693628
0.41662996
0.41632360
0.41601666
0.41571040
0.41540381
0.41509744
0.41479047
0.41448419
0.41417763
0.41387097
0.41356450
0.41325745
0.41295111
0.41264444
0.41233771
0.41203116
0.41172455
0.41141738
0.41111089
0.41080406
0.41049745
0.41019077
0.40988399
0.40957719
0.40927029
0.40896360
0.40865632
0.40834950
0.40804285
0.40773588
0.40742910
0.40712202
0.40681511
0.40650839
0.40620135
0.40589447
0.40558733
0.40528032
0.40497328
0.40466642
0.40435925
0.40405224
0.40374519
0.40343808
0.40313139
0.40282412
0.40251707
0.40220993
0.40190275
0.40159548
0.40128840
0.40098103
0.40067382
0.40036703
0.40005972
0.39975255
0.39944511
0.39913784
0.39883047
0.39852358
0.39821612
0.39790884
0.39760148
0.39729407
0.39698684
0.39667956
0.39637194
0.39606454
0.39575730
0.39544977
0.39514241
0.39483523
0.39452774
0.39421993
0.39391257
0.39360514
0.39329765
0.39299009
0.39268273
0.39237505
0.39206781
0.39176001
0.39145236
0.39114494
0.39083720
0.39052936
0.39022200
0.38991430
0.38960679
0.38929899
0.38899160
0.38868367
0.38837617
0.38806834
0.38776045
0.38745275
0.38714499
0.38683742
0.38652928
0.38622184
0.38591383
0.38560627
0.38529862
0.38499042
0.38468292
0.38437482
0.38406695
0.38375901
0.38345124
0.38314340
0.38283527
0.38252757
0.38221929
0.38191148
0.38160359
0.38129538
0.38098762
0.38067980
0.38037140
0.38006345
0.37975570
0.37944737
0.37913947
0.37883153
0.37852301
0.37821520
0.37790705
0.37759911
0.37729058
0.37698252
0.37667463
0.37636642
0.37605792
0.37574985
0.37544171
0.37513354
0.37482553
0.37451695
0.37420882
0.37390063
0.37359238
0.37328407
0.37297593
0.37266749
0.37235899
0.37205068
0.37174232
0.37143412
0.37112563
0.37081731
0.37050896
0.37020051
0.36989227
0.36958373
0.36927536
0.36896693
0.36865846
0.36835016
0.36804128
0.36773286
0.36742438
0.36711610
0.36680750
0.36649909
0.36619059
0.36588206
0.36557347
0.36526482
0.36495608
0.36464756
0.36433898
0.36403031
0.36372161
0.36341282
0.36310423
0.36279587
0.36248715
0.36217838
0.36186954
0.36156090
0.36125223
0.36094321
0.36063489
0.36032600
0.36001732
0.35970831
0.35939951
0.35909090
0.35878221
0.35847322
0.35816443
0.35785581
0.35754690
0.35723790
0.35692887
0.35662027
0.35631135
0.35600239
0.35569361
0.35538450
0.35507560
0.35476690
0.35445787
0.35414855
0.35383990
0.35353072
0.35322168
0.35291288
0.35260375
0.35229505
0.35198580
0.35167649
0.35136764
0.35105845
0.35074971
0.35044042
0.35013157
0.34982215
0.34951291
0.34920414
0.34889481
0.34858565
0.34827643
0.34796741
0.34765808
0.34734894
0.34703974
0.34673075
0.34642169
0.34611205
0.34580311
0.34549361
0.34518458
0.34487496
0.34456604
0.34425680
0.34394726
0.34363816
0.34332903
0.34301929
0.34271027
0.34240070
0.34209130
0.34178210
0.34147259
0.34116327
0.34085390
0.34054472
0.34023497
0.33992567
0.33961632
0.33930665
0.33899718
0.33868788
0.33837856
0.33806891
0.33775943
0.33744993
0.33714060
0.33683121
0.33652126
0.33621176
0.33590222
0.33559285
0.33528343
0.33497395
0.33466391
0.33435431
0.33404489
0.33373519
0.33342565
0.33311608
0.33280644
0.33249702
0.33218726
0.33187769
0.33156755
0.33125789
0.33094840
0.33063862
0.33032901
0.33001911
0.32970939
0.32939987
0.32909006
0.32878015
0.32847046
0.32816071
0.32785092
0.32754105
0.32723138
0.32692139
0.32661211
0.32630227
0.32599237
0.32568241
0.32537265
0.32506255
0.32475267
0.32444274
0.32413299
0.32382294
0.32351334
0.32320344
0.32289346
0.32258341
0.32227333
0.32196344
0.32165375
0.32134374
0.32103367
0.32072356
0.32041388
0.32010390
0.31979362
0.31948349
0.31917387
0.31886365
0.31855364
0.31824331
0.31793370
0.31762351
0.31731324
0.31700348
0.31669336
0.31638294
0.31607324
0.31576295
0.31545262
0.31514275
0.31483255
0.31452229
0.31421227
0.31390189
0.31359199
0.31328177
0.31297122
0.31266139
0.31235099
0.31204107
0.31173055
0.31142051
0.31111012
0.31080024
0.31048976
0.31017973
0.30986913
0.30955899
0.30924854
0.30893855
0.30862796
0.30831786
0.30800745
0.30769723
0.30738668
0.30707634
0.30676594
0.30645576
0.30614551
0.30583494
0.30552458
0.30521444
0.30490369
0.30459340
0.30428281
0.30397243
0.30366224
0.30335148
0.30304117
0.30273083
0.30242014
0.30210995
0.30179941
0.30148909
0.30117846
0.30086802
0.30055752
0.30024724
0.29993635
0.29962595
0.29931549
0.29900498
0.29869413
0.29838377
0.29807333
0.29776285
0.29745232
0.29714146
0.29683078
0.29652035
0.29620983
0.29589929
0.29558865
0.29527799
0.29496752
0.29465647
0.29434588
0.29403523
0.29372453
0.29341404
0.29310322
0.29279262
0.29248196
0.29217124
0.29186046
0.29154990
0.29123929
0.29092834
0.29061786
0.29030707
0.28999622
0.28968557
0.28937461
0.28906386
0.28875304
0.28844242
0.28813151
0.28782078
0.28750976
0.28719892
0.28688829
0.28657761
0.28626688
0.28595581
0.28564499
0.28533408
0.28502337
0.28471235
0.28440182
0.28409096
0.28378004
0.28346904
0.28315801
0.28284692
0.28253630
0.28222537
0.28191439
0.28160332
0.28129275
0.28098160
0.28067063
0.28035964
0.28004884
0.27973798
0.27942680
0.27911610
0.27880507
0.27849372
0.27818261
0.27787193
0.27756096
0.27724965
0.27693883
0.27662769
0.27631701
0.27600575
0.27569443
0.27538386
0.27507243
0.27476175
0.27445048
0.27413914
0.27382828
0.27351712
0.27320616
0.27289486
0.27258406
0.27227268
0.27196176
0.27165052
0.27133949
0.27102813
0.27071727
0.27040580
0.27009483
0.26978352
0.26947241
0.26916127
0.26885007
0.26853907
0.26822776
0.26791664
0.26760522
0.26729427
0.26698302
0.26667168
0.26636056
0.26604914
0.26573791
0.26542690
0.26511531
0.26480419
0.26449302
0.26418151
0.26387050
0.26355916
0.26324802
0.26293656
0.26262533
0.26231405
0.26200243
0.26169128
0.26138011
0.26106885
0.26075756
0.26044594
0.26013480
0.25982335
0.25951209
0.25920078
0.25888916
0.25857774
0.25826654
0.25795528
0.25764397
0.25733260
0.25702093
0.25670946
0.25639818
0.25608662
0.25577523
0.25546409
0.25515261
0.25484109
0.25452975
0.25421839
0.25390695
0.25359548
0.25328396
0.25297263
0.25266099
0.25234955
0.25203806
0.25172654
0.25141522
0.25110356
0.25079212
0.25048064
0.25016909
0.24985752
0.24954612
0.24923444
0.24892293
0.24861139
0.24829980
0.24798815
0.24767645
0.24736523
0.24705370
0.24674211
0.24643044
0.24611875
0.24580728
0.24549600
0.24518440
0.24487276
0.24456105
0.24424928
0.24393802
0.24362644
0.24331451
0.24300280
0.24269104
0.24237979
0.24206820
0.24175627
0.24144485
0.24113310
0.24082157
0.24050971
0.24019833
0.23988636
0.23957462
0.23926335
0.23895150
0.23863957
0.23832817
0.23801641
0.23770487
0.23739303
0.23708111
0.23676969
0.23645797
0.23614645
0.23583459
0.23552268
0.23521099
0.23489925
0.23458774
0.23427561
0.23396428
0.23365232
0.23334060
0.23302879
0.23271724
0.23240507
0.23209366
0.23178166
0.23146990
0.23115805
0.23084643
0.23053422
0.23022277
0.22991102
0.22959890
0.22928729
0.22897535
0.22866367
0.22835190
0.22803980
0.22772821
0.22741600
0.22710430
0.22679255
0.22648046
0.22616885
0.22585722
0.22554526
0.22523324
0.22492142
0.22460958
0.22429768
0.22398571
0.22367399
0.22336219
0.22305008
0.22273817
0.22242649
0.22211448
0.22180244
0.22149060
0.22117871
0.22086677
0.22055506
0.22024301
0.21993090
0.21961903
0.21930711
0.21899513
0.21868338
0.21837158
0.21805942
0.21774723
0.21743527
0.21712351
0.21681145
0.21649962
0.21618770
0.21587573
0.21556374
0.21525167
0.21493983
0.21462768
0.21431573
0.21400373
0.21369171
0.21337989
0.21306773
0.21275580
0.21244382
0.21213179
0.21181971
0.21150757
0.21119564
0.21088340
0.21057139
0.21025933
0.20994776
0.20963559
0.20932334
0.20901135
0.20869929
0.20838720
0.20807502
0.20776283
0.20745112
0.20713908
0.20682701
0.20651486
0.20620266
0.20589069
0.20557867
0.20526660
0.20495419
0.20464201
0.20433035
0.20401807
0.20370603
0.20339364
0.20308175
0.20276954
0.20245757
0.20214552
0.20183345
0.20152104
0.20120912
0.20089689
0.20058486
0.20027278
0.19996069
0.19964822
0.19933627
0.19902402
0.19871223
0.19839987
0.19808743
0.19777551
0.19746325
0.19715152
0.19683916
0.19652674
0.19621483
0.19590234
0.19559032
0.19527798
0.19496615
0.19465371
0.19434180
0.19402926
0.19371721
0.19340486
0.19309300
0.19278051
0.19246858
0.19215656
0.19184392
0.19153209
0.19121966
0.19090744
0.19059546
0.19028284
0.18997076
0.18965833
0.18934643
0.18903419
0.18872189
0.18840955
0.18809770
0.18778496
0.18747304
0.18716075
0.18684844
0.18653608
0.18622392
0.18591200
0.18559949
0.18528721
0.18497513
0.18466301
0.18435029
0.18403806
0.18372608
0.18341375
0.18310111
0.18278903
0.18247684
0.18216459
0.18185259
0.18154025
0.18122756
0.18091540
0.18060317
0.18029091
0.17997860
0.17966650
0.17935409
0.17904191
0.17872966
0.17841710
0.17810474
0.17779237
0.17748020
0.17716801
0.17685574
0.17654343
0.17623106
0.17591867
0.17560649
0.17529396
0.17498168
0.17466935
0.17435697
0.17404482
0.17373234
0.17342009
0.17310780
0.17279542
0.17248303
0.17217087
0.17185864
0.17154638
0.17123378
0.17092139
0.17060899
0.17029679
0.16998428
0.16967227
0.16935992
0.16904756
0.16873511
0.16842261
0.16811009
0.16779807
0.16748571
0.16717330
0.16686084
0.16654833
0.16623636
0.16592375
0.16561138
0.16529896
0.16498675
0.16467423
0.16436195
0.16404960
0.16373722
0.16342479
0.16311258
0.16280005
0.16248744
0.16217537
0.16186298
0.16155052
0.16123829
0.16092576
0.16061314
0.16030106
0.15998838
0.15967620
0.15936367
0.15905110
0.15873906
0.15842639
0.15811423
0.15780175
0.15748951
0.15717693
0.15686460
0.15655218
0.15624004
0.15592726
0.15561499
0.15530241
0.15499033
0.15467765
0.15436547
0.15405269
0.15374042
0.15342783
0.15311575
0.15280332
0.15249085
0.15217833
0.15186578
0.15155346
0.15124134
0.15092865
0.15061617
0.15030391
0.14999134
0.14967901
0.14936663
0.14905420
0.14874169
0.14842946
0.14811658
0.14780452
0.14749213
