corrn_curve_quartic
-3.53950882
-3.51234475
-3.48523244
-3.45824624
-3.43131176
-3.40450480
-3.37778426
-3.35115388
-3.32460965
-3.29815336
-3.27182299
-3.24554392
-3.21938832
-3.19328209
-3.16730069
-3.14140613
-3.11559824
-3.08987690
-3.06427722
-3.03872840
-3.01330257
-2.98792572
-2.96270610
-2.93753519
-2.91245141
-2.88745096
-2.86253554
-2.83774101
-2.81299689
-2.78837132
-2.76382998
-2.73937270
-2.71499936
-2.69070981
-2.66653731
-2.64241481
-2.61841059
-2.59448936
-2.57061632
-2.54685905
-2.52318608
-2.49962814
-2.47611808
-2.45269189
-2.42937997
-2.40614969
-2.38300093
-2.35989996
-2.33694740
-2.31404235
-2.29121826
-2.26850811
-2.24584541
-2.22329450
-2.20082541
-2.17843636
-2.15612559
-2.13389621
-2.11174485
-2.08967460
-2.06774623
-2.04583273
-2.02403016
-2.00230631
-1.98063103
-1.95909583
-1.93760735
-1.91622831
-1.89489594
-1.87367097
-1.85252510
-1.83145666
-1.81046395
-1.78954994
-1.76871294
-1.74798165
-1.72729665
-1.70671991
-1.68621792
-1.66579206
-1.64541389
-1.62516819
-1.60497139
-1.58484871
-1.56480148
-1.54485883
-1.52501883
-1.50519687
-1.48547876
-1.46583522
-1.44626469
-1.42679707
-1.40737638
-1.38805668
-1.36881211
-1.34962563
-1.33052673
-1.31151511
-1.29255013
-1.27369851
-1.25490578
-1.23619950
-1.21753827
-1.19897686
-1.18048628
-1.16205559
-1.14372391
-1.12546258
-1.10728754
-1.08916917
-1.07111017
-1.05314757
-1.03525724
-1.01744954
-0.99969936
-0.98201974
-0.96442352
-0.94689880
-0.92945444
-0.91208121
-0.89477769
-0.87751836
-0.86036665
-0.84327157
-0.82625700
-0.80932516
-0.79244838
-0.77565397
-0.75892681
-0.74226927
-0.72567873
-0.70916852
-0.69271406
-0.67632868
-0.66002188
-0.64379459
-0.62762264
-0.61152986
-0.59550412
-0.57955710
-0.56366384
-0.54785013
-0.53212499
-0.51644394
-0.50083948
-0.48530214
-0.46982951
-0.45442374
-0.43908243
-0.42381791
-0.40861978
-0.39348565
-0.37841653
-0.36342342
-0.34850604
-0.33365201
-0.31885244
-0.30411716
-0.28945694
-0.27486067
-0.26034873
-0.24587991
-0.23148431
-0.21715315
-0.20288418
-0.18869944
-0.17455758
-0.16048801
-0.14648111
-0.13253781
-0.11867550
-0.10486608
-0.09111876
-0.07745377
-0.06383019
-0.05027843
-0.03678820
-0.02336836
-0.01001071
0.00329577
0.01652248
0.02969825
0.04280257
0.05583763
0.06883175
0.08173662
0.09459973
0.10740377
0.12012891
0.13280389
0.14541928
0.15795648
0.17045316
0.18286371
0.19524217
0.20753408
0.21977745
0.23195222
0.24408672
0.25613667
0.26814648
0.28008034
0.29196437
0.30377381
0.31554335
0.32723782
0.33889243
0.35046373
0.36199532
0.37345274
0.38487052
0.39620604
0.40749445
0.41873406
0.42990059
0.44102022
0.45207471
0.46306595
0.47401714
0.48489716
0.49571365
0.50649109
0.51719721
0.52784835
0.53845973
0.54899327
0.55948013
0.56991247
0.58028340
0.59059934
0.60085348
0.61106904
0.62121618
0.63130887
0.64134121
0.65133444
0.66126008
0.67113256
0.68095201
0.69072515
0.70043154
0.71008530
0.71968656
0.72922824
0.73872487
0.74816932
0.75755466
0.76688813
0.77616355
0.78538671
0.79455910
0.80367946
0.81274927
0.82176048
0.83073428
0.83964433
0.84849698
0.85730575
0.86605676
0.87475812
0.88340275
0.89200386
0.90054854
0.90904407
0.91748927
0.92588490
0.93422476
0.94252160
0.95076359
0.95894971
0.96709371
0.97518214
0.98322251
0.99121372
0.99915709
1.00704018
1.01488111
1.02267399
1.03041892
1.03811020
1.04575382
1.05335564
1.06090424
1.06839414
1.07584261
1.08324459
1.09059907
1.09790671
1.10516819
1.11236663
1.11953452
1.12664576
1.13371566
1.14073997
1.14770238
1.15462960
1.16151056
1.16834642
1.17512644
1.18186630
1.18856091
1.19520079
1.20180028
1.20835988
1.21486032
1.22132557
1.22774188
1.23410848
1.24043618
1.24671922
1.25295394
1.25914476
1.26529132
1.27139003
1.27744982
1.28345699
1.28942546
1.29535523
1.30122840
1.30706760
1.31285552
1.31860472
1.32430694
1.32997103
1.33558884
1.34115973
1.34669317
1.35217996
1.35762944
1.36302884
1.36839030
1.37370653
1.37897733
1.38421488
1.38940323
1.39455446
1.39966080
1.40472629
1.40974720
1.41472793
1.41967534
1.42457103
1.42943393
1.43424960
1.43902160
1.44376426
1.44845656
1.45310922
1.45772903
1.46229912
1.46683338
1.47133149
1.47578392
1.48019430
1.48457523
1.48890762
1.49320171
1.49745692
1.50167693
1.50585534
1.50999266
1.51409157
1.51815872
1.52217893
1.52616446
1.53010896
1.53401624
1.53789201
1.54172121
1.54551643
1.54927162
1.55298982
1.55666830
1.56031563
1.56392344
1.56749191
1.57102420
1.57451719
1.57797663
1.58139754
1.58478219
1.58813119
1.59144156
1.59472157
1.59796067
1.60116454
1.60433304
1.60746602
1.61056167
1.61362229
1.61664797
1.61963881
1.62259262
1.62551184
1.62839655
1.63124707
1.63406306
1.63684269
1.63958634
1.64229586
1.64497381
1.64761777
1.65022623
1.65280094
1.65534239
1.65785048
1.66032339
1.66276300
1.66516791
1.66754176
1.66988097
1.67218926
1.67446314
1.67670450
1.67891022
1.68108521
1.68322968
1.68534054
1.68741924
1.68946304
1.69147652
1.69346002
1.69541022
1.69732613
1.69921366
1.70106844
1.70289206
1.70468323
1.70644346
1.70817406
1.70987150
1.71153949
1.71317691
1.71478137
1.71635688
1.71790322
1.71941585
1.72090091
1.72235588
1.72377888
1.72517315
1.72653576
1.72787095
1.72917657
1.73045093
1.73169705
1.73291212
1.73410005
1.73525720
1.73638643
1.73748604
1.73855786
1.73959949
1.74061358
1.74159848
1.74255589
1.74348376
1.74438494
1.74525684
1.74610150
1.74691782
1.74770703
1.74846752
1.74920002
1.74990684
1.75058476
1.75123655
1.75186026
1.75245657
1.75302736
1.75357004
1.75408687
1.75457635
1.75503896
1.75547589
1.75588620
1.75626998
1.75662797
1.75695964
1.75726543
1.75754518
1.75779940
1.75802782
1.75823071
1.75840829
1.75856025
1.75868698
1.75878857
1.75886510
1.75891669
1.75894333
1.75894521
1.75892243
1.75887506
1.75880311
1.75870686
1.75858632
1.75844156
1.75827281
1.75807990
1.75786301
1.75762245
1.75735815
1.75707039
1.75675883
1.75642404
1.75606587
1.75568471
1.75528004
1.75485255
1.75440209
1.75392870
1.75343282
1.75291342
1.75237219
1.75180835
1.75122207
1.75061336
1.74998289
1.74933071
1.74865590
1.74795907
1.74724087
1.74650083
1.74573850
1.74495561
1.74415058
1.74332406
1.74247679
1.74160822
1.74071843
1.73980750
1.73887693
1.73792477
1.73695166
1.73595785
1.73494407
1.73390896
1.73285407
1.73177962
1.73068406
1.72956905
1.72843298
1.72727773
1.72610437
1.72490925
1.72369430
1.72246059
1.72120814
1.71993525
1.71864391
1.71733216
1.71600311
1.71465391
1.71328559
1.71190032
1.71049389
1.70906983
1.70762802
1.70616637
1.70468739
1.70319087
1.70167374
1.70013934
1.69858915
1.69701829
1.69543186
1.69382615
1.69220238
1.69056219
1.68890425
1.68722984
1.68553664
1.68382729
1.68209901
1.68035490
1.67859481
1.67681485
1.67502193
1.67320914
1.67138233
1.66953588
1.66767683
1.66579842
1.66390477
1.66199599
1.66006940
1.65812802
1.65616880
1.65419656
1.65220503
1.65020052
1.64818171
1.64614396
1.64409206
1.64202430
1.63994275
1.63784552
1.63573114
1.63360479
1.63146334
1.62930478
1.62713283
1.62494760
1.62274387
1.62052879
1.61829891
1.61605431
1.61379325
1.61152107
1.60923460
1.60693354
1.60461647
1.60228889
1.59994696
1.59759095
1.59522112
1.59283525
1.59043762
1.58802795
1.58560460
1.58316763
1.58071513
1.57825313
1.57577574
1.57328705
1.57078715
1.56827208
1.56574577
1.56320462
1.56065053
1.55808566
1.55550801
1.55291955
1.55031849
1.54770510
1.54507904
1.54244273
1.53979219
1.53713135
1.53445835
1.53177327
1.52907837
1.52636957
1.52365067
1.52092022
1.51817807
1.51542651
1.51266118
1.50988660
1.50710040
1.50430309
1.50149681
1.49868142
1.49585265
1.49301308
1.49016233
1.48730092
1.48443079
1.48154994
1.47865867
1.47575893
1.47284869
1.46992565
1.46699461
1.46405329
1.46110174
1.45814486
1.45517527
1.45219593
1.44920667
1.44621218
1.44320329
1.44018690
1.43715865
1.43412799
1.43108316
1.42802866
1.42496755
1.42189941
1.41881958
1.41573313
1.41263762
1.40953314
1.40641974
1.40330003
1.40016902
1.39703185
1.39388862
1.39073428
1.38757144
1.38440251
1.38122549
1.37804254
1.37484905
1.37164977
1.36844008
1.36522474
1.36200412
1.35877063
1.35553702
1.35229040
1.34904144
1.34577960
1.34251823
1.33924410
1.33596528
1.33267916
1.32938849
1.32608528
1.32278281
1.31946817
1.31615200
1.31282868
1.30949337
1.30615922
1.30281320
1.29946576
1.29611179
1.29274611
1.28938201
1.28600605
1.28262934
1.27924644
1.27585211
1.27245950
1.26905838
1.26565132
1.26224118
1.25882525
1.25540077
1.25197342
1.24854301
1.24510734
1.24166055
1.23821655
1.23476439
1.23131007
1.22784458
1.22438248
1.22091274
1.21743771
1.21396060
1.21047288
1.20698893
1.20349738
1.20000114
1.19650316
1.19300063
1.18948784
1.18597928
1.18246319
1.17894599
1.17542456
1.17189868
1.16836899
1.16483497
1.16130017
1.15775535
1.15421280
1.15066910
1.14711877
1.14356770
1.14001041
1.13645223
1.13289352
1.12932848
1.12576274
1.12219138
1.11861915
1.11504408
1.11146887
1.10788768
1.10430620
1.10072211
1.09713518
1.09355111
1.08995841
1.08636632
1.08277134
1.07917413
1.07557417
1.07197477
1.06837036
1.06476634
1.06116578
1.05755769
1.05394989
1.05033767
1.04672617
1.04311245
1.03950317
1.03588611
1.03227031
1.02865255
1.02503348
1.02141556
1.01779645
1.01417261
1.01055070
1.00693019
1.00330573
0.99968278
0.99606172
0.99243658
0.98880742
0.98518333
0.98155835
0.97793253
0.97430595
0.97068166
0.96705371
0.96343119
0.95980211
0.95617526
0.95255131
0.94892399
0.94529606
0.94167422
0.93804888
0.93442642
0.93080119
0.92718167
0.92355647
0.91993710
0.91631488
0.91269288
0.90907418
0.90545581
0.90184084
0.89822030
0.89460931
0.89099285
0.88738304
0.88377361
0.88015919
0.87655460
0.87294453
0.86933867
0.86573378
0.86213262
0.85853252
0.85493085
0.85133608
0.84773655
0.84414461
0.84055374
0.83696127
0.83337626
0.82979278
0.82620488
0.82262460
0.81904901
0.81546917
0.81189682
0.80832661
0.80475234
0.80118899
0.79762437
0.79406511
0.79050172
0.78694676
0.78339672
0.77984599
0.77629494
0.77275193
0.76921137
0.76567362
0.76214109
0.75860526
0.75507801
0.75155349
0.74803174
0.74451282
0.74099944
0.73748635
0.73397624
0.73047213
0.72697111
0.72347588
0.71998121
0.71649244
0.71300727
0.70952516
0.70604939
0.70257446
0.69910567
0.69564045
0.69217915
0.68872413
0.68526704
0.68181953
0.67837585
0.67493895
0.67150309
0.66807410
0.66464886
0.66122800
0.65781127
0.65439874
0.65099017
0.64758905
0.64419227
0.64079961
0.63741167
0.63402796
0.63065164
0.62728305
0.62391598
0.62055361
0.61719600
0.61384602
0.61050117
0.60715812
0.60382820
0.60049792
0.59717551
0.59385540
0.59054324
0.58723909
0.58393989
0.58064349
0.57735523
0.57407486
0.57079744
0.56752524
0.56425887
0.56100334
0.55775070
0.55450403
0.55126557
0.54803015
0.54480332
0.54158511
0.53837010
0.53515863
0.53196081
0.52876418
0.52557586
0.52239668
0.51922103
0.51605676
0.51289371
0.50973704
0.50659213
0.50345076
0.50032122
0.49719318
0.49407679
0.49096203
0.48785636
0.48476270
0.48167084
0.47858819
0.47551243
0.47244621
0.46938438
0.46633217
0.46328704
0.46025162
0.45722337
0.45419717
0.45118570
0.44817667
0.44518010
0.44218584
0.43920640
0.43623191
0.43326268
0.43030584
0.42735687
0.42441030
0.42147898
0.41855067
0.41563242
0.41272451
0.40982203
0.40692997
0.40404590
0.40117231
0.39830191
0.39544454
0.39259533
0.38975191
0.38691918
0.38409693
0.38128326
0.37847558
0.37567851
0.37289015
0.37011247
0.36734334
0.36457834
0.36182650
0.35908359
0.35635153
0.35362826
0.35091381
0.34820384
0.34550720
0.34282160
0.34014317
0.33747562
0.33481738
0.33216829
0.32953063
0.32689994
0.32428054
0.32166620
0.31906569
0.31647658
0.31389490
0.31132470
0.30876203
0.30621091
0.30367158
0.30113993
0.29861776
0.29610750
0.29360700
0.29111654
0.28863572
0.28616693
0.28370597
0.28126110
0.27882225
0.27639347
0.27397480
0.27156836
0.26916984
0.26678383
0.26440809
0.26204451
0.25968945
0.25734863
0.25501642
0.25269449
0.25038309
0.24808245
0.24579420
0.24351855
0.24125162
0.23899541
0.23675016
0.23451919
0.23229732
0.23008462
0.22788437
0.22569906
0.22352098
0.22135581
0.21919988
0.21706044
0.21492864
0.21280787
0.21070218
0.20860575
0.20651903
0.20444888
0.20238654
0.20033583
0.19829995
0.19627382
0.19425926
0.19225819
0.19026686
0.18829063
0.18632439
0.18436822
0.18242873
0.18049786
0.17858219
0.17667511
0.17478326
0.17290159
0.17103534
0.16917791
0.16733561
0.16550242
0.16368441
0.16187719
0.16008518
0.15830234
0.15653490
0.15477844
0.15303573
0.15130395
0.14958614
0.14788084
0.14618955
0.14451083
0.14284327
0.14118981
0.13955047
0.13792101
0.13630700
0.13470453
0.13311629
0.13154216
0.12997834
0.12843004
0.12689485
0.12537122
0.12386342
0.12236725
0.12088551
0.11941576
0.11796037
0.11651821
0.11509056
0.11367373
0.11227272
0.11088508
0.10951084
0.10814887
0.10680275
0.10547001
0.10415094
0.10284545
0.10155246
0.10027415
0.09901075
0.09776097
0.09652504
0.09530281
0.09409452
0.09290103
0.09171949
0.09055385
0.08940217
0.08826450
0.08714186
0.08603231
0.08493784
0.08385751
0.08279135
0.08173941
0.08070262
0.07968011
0.07867102
0.07767794
0.07669845
0.07573339
0.07478353
0.07384741
0.07292663
0.07202031
0.07112936
0.07025233
0.06939063
0.06854295
0.06771066
0.06689383
0.06609176
0.06530450
0.06453140
0.06377393
0.06303131
0.06230421
0.06159152
0.06089507
0.06021303
0.05954607
0.05889417
0.05825747
0.05763596
0.05703068
0.05644014
0.05586487
0.05530487
0.05476115
0.05423189
0.05371845
0.05322049
0.05273837
0.05227172
0.05182019
0.05138500
0.05096500
0.05056027
0.05017160
0.04979920
0.04944220
0.04910065
0.04877546
0.04846579
0.04817244
0.04789448
0.04763243
0.04738695
0.04715681
0.04694322
0.04674530
0.04656343
0.04639796
0.04624845
0.04611520
0.04599800
0.04589720
0.04581246
0.04574412
0.04569201
0.04565626
0.04563684
0.04563382
0.04564722
0.04567703
0.04572334
0.04578611
0.04586540
0.04596124
0.04607358
0.04620263
0.04634822
0.04651061
0.04668942
0.04688510
0.04709757
0.04732664
0.04757272
0.04783546
0.04811483
0.04841159
0.04872478
0.04905493
0.04940239
0.04976623
0.05014744
0.05054542
0.05096083
0.05139300
0.05184234
0.05230929
0.05279267
0.05329324
0.05381112
0.05434625
0.05489921
0.05546858
0.05605581
0.05665998
0.05728158
0.05792117
0.05857776
0.05925128
0.05994233
0.06065096
0.06137719
0.06212167
0.06288322
0.06366184
0.06445875
0.06527283
0.06610386
0.06695343
0.06782084
0.06870539
0.06960773
0.07052806
0.07146624
0.07242238
0.07339573
0.07438789
0.07539729
0.07642476
0.07747023
0.07853297
0.07961481
0.08071385
0.08183108
0.08296654
0.08412016
0.08529121
0.08648142
0.08768910
0.08891503
0.09015934
0.09142207
0.09270324
0.09400067
0.09531761
0.09665305
0.09800716
0.09937972
0.10076963
0.10217699
0.10360424
0.10505003
0.10651464
0.10799798
0.10949736
0.11101671
0.11255636
0.11411346
0.11568941
0.11728136
0.11889360
0.12052623
0.12217485
0.12384391
0.12553044
0.12723751
0.12896067
0.13070586
0.13246857
0.13424734
0.13604828
0.13786857
0.13970457
0.14156159
0.14343615
0.14533148
0.14724628
0.14917690
0.15112841
0.15309765
0.15508805
0.15709785
0.15912526
0.16117210
0.16323654
0.16532421
0.16742572
0.16955057
0.17169306
0.17385532
0.17603501
0.17823830
0.18045544
0.18269608
0.18495438
0.18723262
0.18952851
0.19184815
0.19418148
0.19653649
0.19891371
0.20130647
0.20372128
0.20615357
0.20860599
0.21108060
0.21357068
0.21608528
0.21861534
0.22116542
0.22373788
0.22632598
0.22893390
0.23156432
0.23421489
0.23688346
0.23957197
0.24228068
0.24500988
0.24775659
0.25052381
0.25331360
0.25612144
0.25894704
0.26179556
0.26466423
0.26755094
0.27045808
0.27338565
0.27633101
0.27929954
0.28228860
0.28529546
0.28832287
0.29137085
0.29443663
0.29752300
0.30063311
0.30376361
0.30691195
0.31007839
0.31326813
0.31647570
0.31970430
0.32295368
0.32622355
0.32951455
0.33282338
0.33615579
0.33950634
0.34287779
0.34626985
0.34968005
0.35311433
0.35656645
0.36003956
0.36353368
0.36704885
0.37058509
0.37413950
0.37771794
0.38131424
0.38493167
0.38856394
0.39222369
0.39590499
0.39960381
0.40332419
0.40706550
0.41082843
0.41461232
0.41841091
0.42223430
0.42607869
0.42994480
0.43383232
0.43773767
0.44166444
0.44561264
0.44958596
0.45357714
0.45758246
0.46161666
0.46566869
0.46974603
0.47383783
0.47795460
0.48208919
0.48624578
0.49042363
0.49462701
0.49884474
0.50308765
0.50734878
0.51163163
0.51593585
0.52026621
0.52461041
0.52898002
0.53336420
0.53777750
0.54221310
0.54666242
0.55113774
0.55562670
0.56014587
0.56468702
0.56924219
0.57382693
0.57842607
0.58305107
0.58768998
0.59235909
0.59704166
0.60175498
0.60648216
0.61123541
0.61600244
0.62080046
0.62561135
0.63044485
0.63530951
0.64018294
0.64508717
0.65000961
0.65494975
0.65992135
0.66490609
0.66991777
0.67494253
0.67999428
0.68506841
0.69016496
0.69527493
0.70042107
0.70557540
0.71075742
0.71596145
0.72118798
0.72643267
0.73169499
0.73698912
0.74230093
0.74763086
0.75298336
0.75836792
0.76376566
0.76918100
0.77462401
0.78009426
0.78557655
0.79108255
0.79661125
0.80215752
0.80773167
0.81333380
0.81894833
0.82458615
0.83024626
0.83592918
0.84163018
0.84735879
0.85310495
0.85887451
0.86467181
0.87048720
0.87632499
0.88218082
0.88805905
0.89396078
0.89988550
0.90583323
0.91180343
0.91779165
0.92380850
0.92984282
0.93590021
0.94198070
0.94807862
0.95420534
0.96034949
0.96651677
0.97270780
0.97892143
0.98515244
0.99140722
0.99768462
1.00399112
1.01031560
1.01666276
1.02302785
1.02942158
1.03582726
1.04226222
1.04871991
1.05520156
1.06170658
1.06823438
1.07477397
1.08134305
1.08793555
1.09455148
1.10119087
1.10784127
1.11452759
1.12123116
1.12795822
1.13470311
1.14147721
1.14826850
1.15508396
1.16192234
1.16878430
1.17566404
1.18257319
1.18950663
1.19645069
1.20342423
1.21042207
1.21743701
1.22448156
1.23155047
1.23862983
1.24574553
1.25287228
1.26002946
1.26721042
1.27440164
1.28163016
1.28886958
1.29613891
1.30342522
1.31074221
1.31807617
1.32543466
1.33280939
1.34022188
1.34764504
1.35509839
1.36256233
1.37006354
1.37757528
1.38512443
1.39268406
1.40027408
1.40787449
1.41550604
1.42316159
1.43084118
1.43854409
1.44626451
1.45400240
1.46177749
1.46957009
1.47738016
1.48522095
1.49307847
1.50096010
1.50886585
1.51679650
1.52474307
1.53272882
1.54071694
1.54873600
