corrn_curve_cubic
-2.96511542
-2.94264177
-2.92020459
-2.89786545
-2.87556280
-2.85335944
-2.83122139
-2.80915176
-2.78714727
-2.76520944
-2.74336980
-2.72156651
-2.69985946
-2.67818720
-2.65661241
-2.63510358
-2.61366060
-2.59228341
-2.57100124
-2.54975526
-2.52860548
-2.50749037
-2.48650006
-2.46554427
-2.44465499
-2.42382911
-2.40306806
-2.38240178
-2.36177155
-2.34123423
-2.32076122
-2.30035242
-2.28000777
-2.25972717
-2.23953844
-2.21938561
-2.19932575
-2.17932942
-2.15936755
-2.13949669
-2.11969054
-2.09997488
-2.08029352
-2.06067663
-2.04114969
-2.02168544
-2.00228378
-1.98291648
-1.96366794
-1.94445359
-1.92530150
-1.90623938
-1.88721148
-1.86827183
-1.84939531
-1.83058046
-1.81182582
-1.79313405
-1.77450234
-1.75593332
-1.73747818
-1.71903006
-1.70066984
-1.68237044
-1.66410649
-1.64595514
-1.62783773
-1.60980718
-1.59181059
-1.57389922
-1.55604923
-1.53825923
-1.52052783
-1.50285756
-1.48524703
-1.46772054
-1.45022788
-1.43282148
-1.41547306
-1.39818379
-1.38092963
-1.36378241
-1.34667138
-1.32961793
-1.31262323
-1.29571199
-1.27888265
-1.26206345
-1.24532721
-1.22864914
-1.21202794
-1.19548903
-1.17898489
-1.16256150
-1.14619691
-1.12987665
-1.11362584
-1.09744427
-1.08129737
-1.06524197
-1.04923175
-1.03329019
-1.01738203
-1.00155402
-0.98578146
-0.97005504
-0.95440818
-0.93881645
-0.92329352
-0.90781409
-0.89238049
-0.87702443
-0.86172529
-0.84649197
-0.83130303
-0.81616965
-0.80110285
-0.78609248
-0.77114615
-0.75625601
-0.74142085
-0.72661881
-0.71190435
-0.69723373
-0.68262749
-0.66808757
-0.65359024
-0.63915899
-0.62478086
-0.61045791
-0.59618793
-0.58198241
-0.56782022
-0.55371287
-0.53966857
-0.52568816
-0.51175085
-0.49787719
-0.48405677
-0.47029969
-0.45658444
-0.44293331
-0.42935414
-0.41580854
-0.40232460
-0.38889418
-0.37551521
-0.36218960
-0.34891528
-0.33570297
-0.32254369
-0.30943540
-0.29637900
-0.28338405
-0.27045037
-0.25756722
-0.24472694
-0.23193808
-0.21921001
-0.20653312
-0.19392515
-0.18135032
-0.16883481
-0.15637103
-0.14395704
-0.13161205
-0.11930011
-0.10704684
-0.09484391
-0.08269213
-0.07060670
-0.05856317
-0.04656958
-0.03464362
-0.02274961
-0.01091412
0.00087183
0.01260043
0.02427883
0.03591665
0.04748884
0.05902060
0.07049393
0.08191074
0.09329578
0.10460672
0.11588514
0.12711585
0.13828141
0.14940702
0.16048438
0.17149712
0.18247828
0.19338779
0.20427311
0.21508632
0.22586081
0.23657892
0.24726558
0.25788172
0.26846649
0.27898825
0.28947003
0.29988996
0.31027860
0.32060491
0.33089994
0.34112528
0.35131942
0.36145189
0.37155318
0.38158557
0.39158013
0.40153534
0.41142967
0.42128629
0.43108900
0.44083945
0.45055819
0.46021758
0.46982437
0.47940027
0.48891659
0.49838782
0.50782748
0.51720166
0.52653806
0.53582967
0.54507033
0.55426574
0.56340978
0.57252316
0.58157921
0.59059038
0.59955137
0.60848113
0.61735418
0.62618340
0.63496887
0.64371658
0.65240820
0.66105636
0.66966115
0.67821618
0.68673446
0.69520958
0.70363527
0.71201803
0.72035227
0.72864316
0.73689201
0.74509768
0.75326145
0.76137607
0.76946059
0.77749126
0.78547376
0.79342026
0.80131821
0.80917492
0.81698395
0.82475721
0.83248301
0.84016790
0.84781080
0.85541236
0.86296695
0.87048610
0.87795905
0.88538483
0.89277593
0.90012008
0.90742409
0.91468693
0.92190978
0.92908129
0.93621793
0.94331430
0.95037049
0.95738126
0.96435204
0.97128817
0.97817920
0.98502008
0.99182657
0.99859402
1.00532148
1.01200954
1.01865879
1.02525374
1.03182413
1.03834602
1.04483341
1.05128240
1.05767798
1.06404464
1.07037221
1.07666170
1.08290324
1.08911120
1.09528090
1.10140355
1.10749236
1.11354777
1.11955196
1.12552704
1.13146030
1.13735097
1.14320903
1.14902916
1.15480791
1.16054936
1.16625315
1.17191592
1.17754596
1.18313048
1.18868240
1.19420173
1.19967176
1.20511354
1.21051091
1.21587555
1.22119976
1.22649174
1.23174389
1.23695555
1.24213557
1.24727531
1.25238350
1.25744813
1.26248057
1.26747397
1.27242808
1.27735434
1.28223773
1.28708960
1.29190259
1.29668049
1.30141976
1.30612450
1.31080122
1.31543245
1.32003610
1.32459847
1.32912290
1.33362295
1.33807867
1.34250019
1.34689394
1.35124387
1.35556316
1.35985149
1.36409973
1.36831134
1.37249831
1.37664238
1.38075330
1.38483052
1.38887752
1.39288815
1.39686285
1.40080420
1.40471855
1.40859128
1.41243415
1.41624104
1.42001557
1.42376326
1.42746951
1.43114649
1.43478829
1.43839785
1.44197248
1.44552051
1.44903374
1.45251234
1.45595936
1.45937171
1.46275501
1.46610435
1.46942192
1.47270830
1.47596055
1.47918675
1.48237651
1.48553540
1.48866324
1.49175986
1.49482346
1.49785627
1.50085836
1.50382980
1.50676839
1.50967653
1.51255427
1.51540191
1.51821908
1.52100392
1.52375678
1.52647948
1.52917458
1.53183962
1.53447304
1.53707659
1.53965074
1.54219535
1.54470856
1.54719222
1.54964490
1.55207029
1.55446469
1.55683189
1.55916827
1.56147578
1.56375111
1.56599935
1.56822067
1.57041185
1.57257436
1.57470531
1.57680945
1.57888711
1.58093481
1.58295142
1.58494317
1.58690542
1.58883980
1.59074492
1.59262236
1.59447348
1.59629447
1.59808928
1.59985668
1.60159406
1.60330570
1.60499136
1.60664604
1.60827643
1.60987975
1.61145386
1.61300231
1.61452182
1.61601709
1.61748568
1.61892564
1.62034035
1.62172658
1.62308874
1.62442265
1.62573153
1.62701340
1.62827035
1.62949951
1.63070397
1.63188172
1.63303477
1.63416061
1.63526264
1.63633766
1.63738813
1.63841263
1.63941267
1.64038617
1.64133396
1.64225902
1.64315708
1.64403175
1.64488037
1.64570376
1.64650450
1.64727891
1.64803011
1.64875588
1.64945683
1.65013471
1.65078800
1.65141673
1.65202206
1.65260300
1.65316020
1.65369328
1.65420308
1.65468897
1.65515137
1.65559070
1.65600600
1.65639805
1.65676693
1.65711270
1.65743566
1.65773516
1.65801178
1.65826541
1.65849650
1.65870506
1.65889071
1.65905384
1.65919454
1.65931278
1.65940880
1.65948258
1.65953415
1.65956364
1.65957113
1.65955668
1.65952039
1.65946232
1.65938261
1.65928120
1.65915831
1.65901394
1.65884816
1.65866117
1.65845259
1.65822315
1.65797257
1.65770096
1.65740833
1.65709506
1.65676122
1.65640637
1.65603081
1.65563496
1.65521857
1.65478140
1.65432447
1.65384688
1.65334903
1.65283140
1.65229365
1.65173587
1.65115812
1.65056137
1.64994439
1.64930761
1.64865120
1.64797566
1.64728010
1.64656556
1.64583222
1.64507904
1.64430716
1.64351547
1.64270530
1.64187743
1.64102928
1.64016222
1.63927703
1.63837374
1.63745113
1.63651065
1.63555088
1.63457411
1.63357825
1.63256405
1.63153317
1.63048245
1.62941453
1.62832936
1.62722534
1.62610439
1.62496636
1.62380891
1.62263459
1.62144455
1.62023506
1.61901003
1.61776662
1.61650575
1.61522873
1.61393452
1.61262412
1.61129573
1.60995141
1.60858898
1.60721089
1.60581703
1.60440432
1.60297826
1.60153333
1.60007422
1.59859644
1.59710563
1.59559636
1.59407196
1.59253251
1.59097586
1.58940444
1.58781580
1.58621384
1.58459348
1.58295984
1.58131186
1.57964576
1.57796544
1.57626952
1.57455969
1.57283440
1.57109245
1.56933810
1.56756878
1.56578283
1.56398332
1.56217035
1.56033960
1.55849699
1.55663967
1.55476770
1.55287963
1.55097992
1.54906593
1.54713741
1.54519316
1.54323780
1.54126811
1.53928432
1.53728665
1.53527322
1.53324765
1.53120971
1.52915800
1.52709259
1.52501185
1.52292088
1.52081472
1.51869682
1.51656726
1.51442268
1.51226642
1.51009541
1.50791128
1.50571587
1.50350747
1.50128777
1.49905524
1.49681011
1.49455209
1.49228326
1.49000020
1.48770628
1.48539992
1.48308117
1.48075199
1.47840887
1.47605507
1.47368934
1.47131157
1.46892373
1.46652203
1.46411043
1.46168683
1.45925170
1.45680689
1.45435229
1.45188417
1.44940480
1.44691381
1.44441169
1.44190012
1.43937735
1.43684365
1.43430072
1.43174680
1.42917985
1.42660410
1.42401753
1.42142020
1.41881641
1.41619969
1.41357262
1.41093505
1.40829114
1.40563279
1.40296607
1.40028715
1.39760438
1.39490736
1.39220007
1.38948522
1.38676244
1.38402760
1.38128519
1.37853307
1.37577128
1.37299990
1.37022124
1.36743085
1.36463332
1.36182874
1.35901260
1.35618723
1.35335478
1.35051348
1.34766524
1.34480595
1.34193986
1.33906283
1.33617913
1.33328908
1.33038589
1.32748099
1.32456281
1.32164094
1.31870590
1.31576971
1.31282045
1.30986538
1.30690217
1.30393331
1.30095155
1.29796891
1.29497372
1.29197560
1.28896947
1.28595095
1.28293194
1.27990064
1.27686652
1.27382496
1.27077125
1.26771744
1.26465135
1.26158307
1.25850764
1.25542032
1.25233304
1.24923652
1.24613310
1.24302537
1.23991086
1.23678708
1.23365918
1.23052700
1.22738855
1.22423845
1.22108942
1.21793146
1.21477005
1.21159695
1.20842549
1.20524557
1.20205933
1.19886973
1.19566894
1.19247017
1.18926296
1.18605000
1.18283400
1.17961237
1.17637987
1.17314983
1.16991141
1.16667054
1.16342435
1.16017263
1.15691597
1.15365389
1.15038968
1.14711479
1.14384059
1.14056392
1.13727969
1.13399339
1.13069992
1.12740423
1.12410665
1.12080180
1.11749491
1.11418141
1.11086572
1.10754600
1.10422477
1.10089660
1.09756677
1.09423314
1.09089550
1.08755914
1.08421337
1.08086680
1.07751618
1.07416211
1.07080410
1.06744527
1.06408039
1.06071452
1.05735053
1.05397815
1.05060470
1.04722576
1.04384614
1.04046311
1.03708288
1.03369404
1.03030504
1.02691286
1.02351811
1.02012311
1.01672567
1.01332246
1.00991974
1.00651701
1.00310924
0.99970158
0.99629437
0.99288201
0.98946455
0.98605055
0.98263440
0.97921617
0.97579589
0.97237649
0.96895232
0.96553198
0.96210415
0.95867712
0.95525155
0.95182149
0.94838956
0.94496212
0.94153007
0.93809947
0.93466495
0.93123457
0.92779753
0.92436474
0.92092797
0.91749014
0.91405416
0.91061723
0.90718227
0.90374075
0.90030704
0.89686687
0.89343177
0.88999577
0.88655376
0.88311986
0.87967949
0.87624189
0.87280396
0.86936834
0.86593249
0.86249391
0.85906066
0.85562163
0.85218862
0.84875539
0.84531941
0.84188933
0.83845948
0.83502418
0.83159495
0.82816899
0.82473774
0.82131244
0.81788798
0.81445841
0.81103811
0.80761538
0.80419658
0.80077260
0.79735553
0.79394198
0.79052657
0.78710964
0.78369926
0.78029004
0.77688232
0.77347846
0.77007021
0.76666905
0.76326934
0.75987111
0.75647444
0.75308193
0.74968851
0.74629681
0.74290972
0.73952445
0.73614361
0.73276215
0.72938522
0.72601061
0.72263781
0.71926999
0.71590181
0.71253844
0.70917737
0.70581895
0.70246548
0.69910884
0.69576036
0.69241446
0.68907400
0.68573341
0.68239837
0.67906583
0.67573641
0.67240990
0.66908633
0.66576549
0.66245078
0.65913918
0.65583047
0.65252525
0.64922303
0.64592691
0.64263722
0.63934790
0.63606207
0.63277977
0.62950382
0.62623180
0.62296042
0.61970080
0.61643973
0.61318527
0.60993196
0.60668536
0.60344550
0.60020943
0.59697501
0.59374749
0.59052664
0.58730760
0.58409262
0.58088229
0.57768154
0.57448255
0.57128837
0.56810120
0.56491596
0.56173811
0.55856769
0.55539937
0.55223348
0.54907998
0.54592662
0.54278039
0.53964214
0.53650633
0.53338071
0.53025526
0.52713506
0.52402547
0.52091832
0.51782186
0.51472585
0.51164034
0.50855541
0.50547847
0.50241240
0.49934710
0.49628990
0.49323853
0.49019562
0.48715603
0.48412501
0.48110000
0.47808363
0.47507338
0.47206419
0.46906863
0.46607450
0.46309179
0.46011038
0.45714274
0.45417904
0.45121960
0.44827153
0.44533032
0.44239053
0.43946498
0.43654146
0.43362702
0.43072194
0.42782131
0.42493013
0.42204597
0.41917135
0.41629895
0.41343864
0.41058554
0.40773729
0.40489880
0.40206987
0.39924860
0.39643240
0.39362589
0.39082719
0.38803827
0.38525701
0.38247897
0.37971321
0.37695551
0.37420781
0.37146801
0.36873618
0.36600794
0.36329220
0.36058667
0.35788745
0.35519829
0.35251763
0.34984527
0.34718356
0.34452798
0.34188290
0.33924204
0.33661426
0.33399711
0.33138659
0.32878678
0.32619373
0.32361147
0.32104028
0.31847599
0.31592043
0.31337606
0.31084073
0.30831470
0.30579760
0.30329185
0.30079317
0.29830999
0.29583207
0.29336352
0.29090441
0.28845689
0.28601657
0.28358814
0.28116933
0.27876206
0.27636263
0.27397688
0.27159908
0.26923094
0.26687270
0.26452463
0.26218837
0.25986416
0.25754804
0.25524206
0.25294648
0.25066468
0.24839139
0.24612667
0.24387390
0.24163562
0.23940394
0.23718471
0.23497414
0.23277970
0.23059230
0.22841544
0.22625326
0.22409982
0.22195557
0.21982757
0.21770682
0.21559725
0.21350218
0.21141637
0.20934169
0.20728015
0.20522787
0.20319041
0.20116248
0.19914418
0.19714233
0.19514863
0.19316988
0.19119924
0.18924360
0.18729774
0.18536708
0.18344480
0.18153745
0.17963879
0.17775511
0.17588189
0.17402369
0.17217428
0.17034011
0.16851661
0.16670667
0.16490735
0.16312183
0.16134859
0.15958920
0.15784217
0.15610604
0.15438388
0.15267571
0.15097712
0.14929394
0.14762209
0.14596437
0.14432067
0.14268704
0.14106893
0.13946382
0.13787008
0.13629221
0.13472582
0.13317383
0.13163372
0.13010795
0.12859536
0.12709730
0.12560991
0.12413842
0.12268029
0.12123556
0.11980303
0.11838648
0.11698334
0.11559389
0.11421807
0.11285472
0.11150618
0.11017268
0.10885285
0.10754698
0.10625489
0.10497685
0.10371379
0.10246267
0.10122770
0.10000684
0.09880014
0.09760868
0.09643043
0.09526749
0.09411888
0.09298465
0.09186483
0.09076046
0.08967058
0.08859430
0.08753440
0.08648829
0.08545688
0.08444099
0.08343909
0.08245287
0.08148142
0.08052572
0.07958420
0.07865841
0.07774693
0.07685124
0.07597145
0.07510679
0.07425732
0.07342237
0.07260351
0.07179991
0.07101231
0.07023950
0.06948350
0.06874231
0.06801667
0.06730657
0.06661216
0.06593345
0.06527156
0.06462490
0.06399405
0.06337899
0.06278087
0.06219769
0.06163094
0.06108026
0.06054606
0.06002793
0.05952551
0.05904013
0.05857054
0.05811684
0.05767989
0.05725997
0.05685609
0.05646831
0.05609768
0.05574325
0.05540594
0.05508467
0.05478008
0.05449291
0.05422175
0.05396803
0.05373070
0.05351023
0.05330703
0.05312060
0.05295128
0.05279885
0.05266372
0.05254548
0.05244457
0.05236076
0.05229424
0.05224494
0.05221302
0.05219841
0.05220121
0.05222145
0.05225914
0.05231434
0.05238710
0.05247737
0.05258536
0.05271094
0.05285435
0.05301526
0.05319409
0.05339080
0.05360520
0.05383771
0.05408800
0.05435605
0.05464262
0.05494679
0.05526908
0.05560983
0.05596817
0.05634508
0.05673995
0.05715349
0.05758502
0.05803496
0.05850377
0.05899027
0.05949525
0.06001883
0.06056096
0.06112225
0.06170127
0.06229949
0.06291600
0.06355131
0.06420600
0.06487907
0.06557045
0.06628079
0.06701012
0.06775850
0.06852660
0.06931322
0.07011837
0.07094331
0.07178692
0.07264895
0.07353108
0.07443258
0.07535276
0.07629229
0.07725139
0.07822992
0.07922803
0.08024493
0.08128229
0.08233851
0.08341444
0.08451005
0.08562455
0.08675990
0.08791411
0.08908824
0.09028232
0.09149629
0.09272942
0.09398351
0.09525683
0.09655017
0.09786371
0.09919749
0.10055155
0.10192358
0.10331705
0.10473091
0.10616532
0.10762008
0.10909402
0.11058727
0.11210244
0.11363808
0.11519452
0.11677168
0.11836670
0.11998377
0.12162327
0.12328215
0.12496194
0.12665959
0.12837972
0.13012241
0.13188299
0.13366623
0.13546896
0.13729448
0.13913805
0.14100602
0.14289358
0.14479918
0.14672938
0.14868116
0.15065065
0.15264353
0.15465609
0.15669182
0.15874932
0.16082470
0.16292338
0.16504202
0.16718429
0.16934834
0.17153222
0.17373793
0.17596349
0.17821499
0.18048232
0.18277572
0.18508907
0.18742469
0.18978004
0.19216182
0.19455949
0.19698350
0.19942755
0.20189410
0.20438072
0.20689399
0.20942304
0.21197656
0.21455510
0.21715146
0.21977270
0.22241390
0.22507792
0.22776703
0.23047393
0.23320847
0.23596082
0.23873594
0.24153642
0.24435493
0.24719604
0.25006266
0.25295227
0.25586252
0.25879555
0.26175166
0.26473116
0.26773082
0.27075392
0.27380274
0.27687234
0.27996242
0.28307864
0.28621796
0.28937812
0.29256171
0.29576878
0.29899642
0.30225054
0.30552828
0.30882665
0.31214867
0.31549439
0.31886077
0.32225088
0.32566820
0.32910908
0.33257071
0.33605338
0.33956285
0.34309308
0.34664764
0.35022624
0.35382859
0.35745540
0.36110304
0.36477788
0.36847392
0.37219422
0.37593848
0.37970397
0.38349727
0.38731151
0.39115017
0.39501330
0.39890094
0.40281314
0.40674669
0.41070810
0.41469054
0.41869767
0.42272249
0.42677906
0.43086082
0.43496328
0.43909098
0.44324319
0.44742071
0.45162283
0.45584260
0.46009125
0.46436456
0.46866337
0.47298733
0.47733248
0.48170282
0.48609838
0.49052328
0.49496945
0.49943276
0.50392964
0.50844780
0.51299558
0.51756089
0.52215549
0.52677140
0.53141330
0.53608037
0.54077739
0.54549190
0.55023602
0.55500196
0.55979367
0.56461074
0.56945856
0.57432336
0.57921810
0.58413066
0.58907734
0.59405054
0.59904063
0.60406140
0.60909901
0.61417205
0.61927131
0.62438786
0.62953917
0.63470824
0.63990792
0.64512483
0.65037727
0.65564644
0.66095180
0.66627438
0.67162790
0.67699857
0.68240575
0.68782907
0.69327951
0.69876674
0.70426549
0.70980065
0.71535801
0.72093703
0.72655325
0.73218599
0.73785087
0.74353221
0.74924576
0.75498635
0.76075399
0.76653855
0.77236578
0.77820401
0.78407535
0.78997337
0.79589865
0.80184626
0.80781564
0.81382287
0.81985194
0.82590338
0.83198222
0.83809928
0.84423311
0.85038877
0.85657769
0.86279941
0.86903667
0.87530273
0.88159648
0.88791209
0.89426131
0.90064426
0.90704322
0.91347061
0.91992530
0.92640790
0.93291302
0.93945156
0.94601205
0.95260118
0.95922393
0.96586928
0.97254217
0.97923764
0.98596068
0.99271257
0.99949273
1.00630119
1.01313738
1.01999619
1.02688980
1.03380544
1.04074955
1.04772215
1.05471676
1.06174646
1.06879820
1.07587854
1.08298820
1.09012589
1.09728563
1.10447475
1.11169196
1.11894473
1.12622028
1.13352403
1.14085053
1.14821213
1.15558962
1.16300297
1.17044466
1.17791611
1.18541666
1.19294567
1.20049043
1.20807141
1.21568161
1.22332106
1.23098980
1.23867348
1.24640088
1.25415044
1.26192941
1.26973123
1.27756909
1.28542910
1.29331936
1.30123842
1.30918707
1.31715862
1.32516653
1.33320490
1.34125789
1.34934740
1.35746743
1.36560963
1.37378854
1.38199809
1.39022213
1.39849076
1.40677460
1.41509619
1.42344782
1.43181379
1.44022554
1.44865240
1.45711649
1.46560278
1.47412723
1.48267390
1.49125162
1.49985071
1.50849630
1.51715682
1.52585504
1.53456809
1.54332716
1.55210104
1.56092112
1.56975597
1.57862886
1.58751644
1.59644297
1.60540014
1.61438798
1.62340569
1.63244647
1.64151030
1.65062029
1.65975340
1.66890959
1.67810442
1.68732148
1.69656945
1.70584838
1.71515917
1.72449130
1.73387212
1.74325838
1.75268368
