corrn_curve_linear
1.72053789
1.71957667
1.71861414
1.71765293
1.71669039
1.71572925
1.71476803
1.71380689
1.71284568
1.71188446
1.71092464
1.70996350
1.70900368
1.70804246
1.70708264
1.70612282
1.70516300
1.70420318
1.70324468
1.70228486
1.70132643
1.70036661
1.69940950
1.69845101
1.69749258
1.69653408
1.69557558
1.69461847
1.69366005
1.69270294
1.69174583
1.69078873
1.68983162
1.68887451
1.68791873
1.68696162
1.68600591
1.68505020
1.68409309
1.68313731
1.68218159
1.68122720
1.68027142
1.67931570
1.67836131
1.67740692
1.67645253
1.67549674
1.67454374
1.67358935
1.67263496
1.67168196
1.67072757
1.66977450
1.66882150
1.66786850
1.66691543
1.66596243
1.66500936
1.66405636
1.66310608
1.66215301
1.66120133
1.66024966
1.65929666
1.65834637
1.65739470
1.65644441
1.65549273
1.65454238
1.65359209
1.65264181
1.65169146
1.65074117
1.64979089
1.64884192
1.64789157
1.64694268
1.64599371
1.64504475
1.64409447
1.64314683
1.64219794
1.64124897
1.64030001
1.63935244
1.63840619
1.63745723
1.63650966
1.63556209
1.63461445
1.63366820
1.63272063
1.63177439
1.63082821
1.62988127
1.62893502
1.62798947
1.62704259
1.62609774
1.62515219
1.62420733
1.62326108
1.62231623
1.62137130
1.62042575
1.61948159
1.61853736
1.61759390
1.61664967
1.61570482
1.61476128
1.61381782
1.61287498
1.61193145
1.61098792
1.61004508
1.60910231
1.60816010
1.60721796
1.60627582
1.60533229
1.60439084
1.60344870
1.60250719
1.60156644
1.60062493
1.59968418
1.59874336
1.59780261
1.59686179
1.59592167
1.59498085
1.59404011
1.59309998
1.59216056
1.59122044
1.59028101
1.58934158
1.58840285
1.58746336
1.58652463
1.58558722
1.58464849
1.58371039
1.58277235
1.58183425
1.58089622
1.57995811
1.57902071
1.57808337
1.57714596
1.57620855
1.57527184
1.57433583
1.57339974
1.57246303
1.57152632
1.57059030
1.56965429
1.56871960
1.56778358
1.56684819
1.56591287
1.56497749
1.56404349
1.56310817
1.56217348
1.56123878
1.56030416
1.55937079
1.55843679
1.55750280
1.55657019
1.55563620
1.55470290
1.55376960
1.55283692
1.55190432
1.55097102
1.55003904
1.54910637
1.54817446
1.54724318
1.54631050
1.54537992
1.54444801
1.54351603
1.54258544
1.54165416
1.54072288
1.53979299
1.53886171
1.53793245
1.53700116
1.53607197
1.53514201
1.53421282
1.53328223
1.53235366
1.53142370
1.53049514
1.52956594
1.52863807
1.52770881
1.52678094
1.52585168
1.52492450
1.52399593
1.52306876
1.52214019
1.52121371
1.52028647
1.51935860
1.51843212
1.51750487
1.51657839
1.51565254
1.51472537
1.51379951
1.51287436
1.51194781
1.51102265
1.51009750
1.50917102
1.50824656
1.50732140
1.50639625
1.50547172
1.50454725
1.50362349
1.50269833
1.50177450
1.50085074
1.49992760
1.49900314
1.49808000
1.49715686
1.49623373
1.49530996
1.49438752
1.49346508
1.49254264
1.49162089
1.49069845
1.48977601
1.48885426
1.48793252
1.48701140
1.48609035
1.48516923
1.48424818
1.48332706
1.48240671
1.48148496
1.48056454
1.47964481
1.47872439
1.47780473
1.47688500
1.47596597
1.47504625
1.47412721
1.47320811
1.47228908
1.47137005
1.47045172
1.46953269
1.46861428
1.46769664
1.46677824
1.46586060
1.46494289
1.46402525
1.46310755
1.46219123
1.46127422
1.46035720
1.45944019
1.45852388
1.45760756
1.45669055
1.45577423
1.45485931
1.45394369
1.45302800
1.45211238
1.45119676
1.45028107
1.44936747
1.44845185
1.44753755
1.44662262
1.44570763
1.44479473
1.44388043
1.44296620
1.44205190
1.44113900
1.44022540
1.43931179
1.43839952
1.43748661
1.43657301
1.43566143
1.43474852
1.43383624
1.43292473
1.43201245
1.43110024
1.43018866
1.42927707
1.42836556
1.42745467
1.42654309
1.42563290
1.42472201
1.42381043
1.42290094
1.42199005
1.42108049
1.42017029
1.41926080
1.41835061
1.41744104
1.41653225
1.41562268
1.41471388
1.41380432
1.41289615
1.41198735
1.41107918
1.41017170
1.40926283
1.40835536
1.40744718
1.40653971
1.40563223
1.40472545
1.40381860
1.40291043
1.40200435
1.40109687
1.40019072
1.39928526
1.39837778
1.39747233
1.39656687
1.39566009
1.39475533
1.39384987
1.39294379
1.39203903
1.39113489
1.39022881
1.38932474
1.38842061
1.38751654
1.38661178
1.38570772
1.38480428
1.38390091
1.38299615
1.38209340
1.38118996
1.38028729
1.37938455
1.37848041
1.37757844
1.37667569
1.37577365
1.37487160
1.37397025
1.37306751
1.37216546
1.37126411
1.37036269
1.36946204
1.36856069
1.36765996
1.36675931
1.36585858
1.36495863
1.36405721
1.36315725
1.36225722
1.36135719
1.36045723
1.35955790
1.35865857
1.35775924
1.35685991
1.35596127
1.35506263
1.35416400
1.35326529
1.35236666
1.35146872
1.35057140
1.34967416
1.34877615
1.34787821
1.34698090
1.34608365
1.34518634
1.34428903
1.34339241
1.34249586
1.34159994
1.34070332
1.33980740
1.33891079
1.33801486
1.33711894
1.33622435
1.33532912
1.33443320
1.33353790
1.33264268
1.33174878
1.33085425
1.32995895
1.32906442
1.32817122
1.32727662
1.32638272
1.32548881
1.32459561
1.32370240
1.32280857
1.32191599
1.32102278
1.32012958
1.31923776
1.31834518
1.31745198
1.31656086
1.31566828
1.31477577
1.31388458
1.31299276
1.31210227
1.31121039
1.31031857
1.30942808
1.30853690
1.30764710
1.30675591
1.30586612
1.30497562
1.30408583
1.30319534
1.30230624
1.30141637
1.30052727
1.29963748
1.29874900
1.29785921
1.29697074
1.29608164
1.29519316
1.29430406
1.29341629
1.29252921
1.29164004
1.29075296
1.28986448
1.28897740
1.28809102
1.28720254
1.28631616
1.28542838
1.28454193
1.28365624
1.28276916
1.28188270
1.28099701
1.28011056
1.27922487
1.27833911
1.27745405
1.27656836
1.27568330
1.27479824
1.27391248
1.27302811
1.27214375
1.27125938
1.27037501
1.26948995
1.26860628
1.26772261
1.26683957
1.26595590
1.26507153
1.26418849
1.26330551
1.26242247
1.26154012
1.26065715
1.25977410
1.25889176
1.25800948
1.25712783
1.25624548
1.25536383
1.25448218
1.25360122
1.25271957
1.25183854
1.25095759
1.25007663
1.24919630
1.24831465
1.24743439
1.24655406
1.24567381
1.24479348
1.24391391
1.24303498
1.24215534
1.24127571
1.24039677
1.23951784
1.23863827
1.23775996
1.23688103
1.23600209
1.23512385
1.23424561
1.23336737
1.23248913
1.23161221
1.23073466
1.22985705
1.22897950
1.22810259
1.22722504
1.22634812
1.22547190
1.22459505
1.22371883
1.22284191
1.22196569
1.22109086
1.22021464
1.21933842
1.21846289
1.21758799
1.21671246
1.21583763
1.21496211
1.21408791
1.21321308
1.21233825
1.21146474
1.21058984
1.20971570
1.20884220
1.20796799
1.20709456
1.20622167
1.20534754
1.20447403
1.20360192
1.20272841
1.20185630
1.20098348
1.20011060
1.19923849
1.19836637
1.19749488
1.19662277
1.19575135
1.19487916
1.19400775
1.19313695
1.19226484
1.19139474
1.19052325
1.18965316
1.18878174
1.18791227
1.18704154
1.18617145
1.18530198
1.18443188
1.18356248
1.18269238
1.18182368
1.18095358
1.18008481
1.17921673
1.17834733
1.17747862
1.17660985
1.17574184
1.17487376
1.17400499
1.17313761
1.17227029
1.17140222
1.17053483
1.16966815
1.16880007
1.16793339
1.16706670
1.16620001
1.16533263
1.16446657
1.16360058
1.16273452
1.16186784
1.16100254
1.16013718
1.15927182
1.15840652
1.15754046
1.15667517
1.15581050
1.15494584
1.15408117
1.15321580
1.15235183
1.15148717
1.15062320
1.14975992
1.14889595
1.14803260
1.14716863
1.14630466
1.14544139
1.14457811
1.14371546
1.14285281
1.14199024
1.14112759
1.14026563
1.13940306
1.13854110
1.13767915
1.13681720
1.13595594
1.13509406
1.13423273
1.13337148
1.13251022
1.13164966
1.13078840
1.12992784
1.12906721
1.12820665
1.12734679
1.12648755
1.12562762
1.12476775
1.12390782
1.12304795
1.12218872
1.12132948
1.12047031
1.11961177
1.11875323
1.11789399
1.11703545
1.11617690
1.11531836
1.11446121
1.11360330
1.11274545
1.11188761
1.11103108
1.11017324
1.10931602
1.10845817
1.10760235
1.10674520
1.10588798
1.10503152
1.10417570
1.10331917
1.10246335
1.10160752
1.10075169
1.09989586
1.09904073
1.09818491
1.09732978
1.09647534
1.09562021
1.09476508
1.09391057
1.09305614
1.09220233
1.09134790
1.09049409
1.08963965
1.08878584
1.08793273
1.08707830
1.08622588
1.08537207
1.08451966
1.08366585
1.08281413
1.08196102
1.08110860
1.08025618
1.07940446
1.07855135
1.07770026
1.07684784
1.07599682
1.07514572
1.07429331
1.07344291
1.07259119
1.07174079
1.07089039
1.07003867
1.06918897
1.06833788
1.06748818
1.06663847
1.06578745
1.06493838
1.06408867
1.06323897
1.06238997
1.06154096
1.06069126
1.05984225
1.05899387
1.05814557
1.05729586
1.05644818
1.05559980
1.05475219
1.05390311
1.05305613
1.05220851
1.05136083
1.05051384
1.04966546
1.04881917
1.04797219
1.04712520
1.04627891
1.04543262
1.04458494
1.04373934
1.04289298
1.04204739
1.04120179
1.04035613
1.03951053
1.03866487
1.03781997
1.03697361
1.03612871
1.03528444
1.03443947
1.03359520
1.03275030
1.03190603
1.03106245
1.03021818
1.02937453
1.02853033
1.02768668
1.02684311
1.02600023
1.02515665
1.02431370
1.02347082
1.02262794
1.02178638
1.02094343
1.02010125
1.01925900
1.01841681
1.01757456
1.01673300
1.01589082
1.01504926
1.01420903
1.01336754
1.01252661
1.01168512
1.01084426
1.01000333
1.00916386
1.00832300
1.00748283
1.00664260
1.00580243
1.00496289
1.00412342
1.00328319
1.00244372
1.00160488
1.00076541
0.99992656
0.99908842
0.99824957
0.99741004
0.99657189
0.99573374
0.99489560
0.99405745
0.99322000
0.99238185
0.99154510
0.99070695
0.98986943
0.98903268
0.98819522
0.98735770
0.98652165
0.98568482
0.98484869
0.98401194
0.98317651
0.98233975
0.98150432
0.98066819
0.97983206
0.97899663
0.97816120
0.97732646
0.97649034
0.97565630
0.97482086
0.97398683
0.97315272
0.97231728
0.97148394
0.97064913
0.96981509
0.96898105
0.96814764
0.96731423
0.96648019
0.96564747
0.96481336
0.96398071
0.96314800
0.96231458
0.96148256
0.96065054
0.95981713
0.95898511
0.95815378
0.95732106
0.95648967
0.95565834
0.95482563
0.95399500
0.95316360
0.95233297
0.95150088
0.95067025
0.94984025
0.94900955
0.94817823
0.94734822
0.94651822
0.94568829
0.94485898
0.94402828
0.94319898
0.94236967
0.94154036
0.94071106
0.93988238
0.93905307
0.93822376
0.93739515
0.93656654
0.93573856
0.93490995
0.93408197
0.93325405
0.93242607
0.93159878
0.93077087
0.92994358
0.92911629
0.92828907
0.92746248
0.92663450
0.92580790
0.92498131
0.92415542
0.92332882
0.92250293
0.92167696
0.92085107
0.92002517
0.91919928
0.91837331
0.91754811
0.91672291
0.91589764
0.91507244
0.91424717
0.91342260
0.91259879
0.91177422
0.91094965
0.91012507
0.90930120
0.90847739
0.90765282
0.90683026
0.90600638
0.90518320
0.90435933
0.90353614
0.90271366
0.90189110
0.90106792
0.90024544
0.89942358
0.89860110
0.89777854
0.89695606
0.89613489
0.89531303
0.89449125
0.89367008
0.89284823
0.89202706
0.89120660
0.89038543
0.88956365
0.88874381
0.88792271
0.88710218
0.88628241
0.88546194
0.88464280
0.88382233
0.88300186
0.88218279
0.88136295
0.88054450
0.87972473
0.87890628
0.87808651
0.87726737
0.87644962
0.87563054
0.87481210
0.87399365
0.87317590
0.87235745
0.87153970
0.87072195
0.86990489
0.86908783
0.86826939
0.86745296
0.86663521
0.86581885
0.86500110
0.86418536
0.86336893
0.86255188
0.86173614
0.86092048
0.86010336
0.85928832
0.85847196
0.85765623
0.85684119
0.85602546
0.85521042
0.85439538
0.85358104
0.85276531
0.85195097
0.85113663
0.85032159
0.84950725
0.84869354
0.84787989
0.84706555
0.84625184
0.84543819
0.84462517
0.84381215
0.84299781
0.84218479
0.84137185
0.84055952
0.83974720
0.83893488
0.83812123
0.83730891
0.83649722
0.83568496
0.83487327
0.83406164
0.83325002
0.83243909
0.83162746
0.83081646
0.83000414
0.82919321
0.82838290
0.82757197
0.82676167
0.82595074
0.82514044
0.82433083
0.82352060
0.82271029
0.82190068
0.82109108
0.82028154
0.81947193
0.81866302
0.81785341
0.81704582
0.81623691
0.81542800
0.81461909
0.81381087
0.81300189
0.81219368
0.81138546
0.81057787
0.80976966
0.80896276
0.80815525
0.80734766
0.80654007
0.80573255
0.80492566
0.80411946
0.80331257
0.80250567
0.80169885
0.80089328
0.80008708
0.79928026
0.79847399
0.79766919
0.79686299
0.79605749
0.79525129
0.79444712
0.79364162
0.79283605
0.79203194
0.79122706
0.79042156
0.78961808
0.78881321
0.78800840
0.78720492
0.78640074
0.78559656
0.78479315
0.78398897
0.78318619
0.78238270
0.78157853
0.78077637
0.77997288
0.77917080
0.77836731
0.77756522
0.77676237
0.77596097
0.77515819
0.77435672
0.77355394
0.77275247
0.77195039
0.77114962
0.77034746
0.76954669
0.76874530
0.76794453
0.76714307
0.76634230
0.76554153
0.76474146
0.76394139
0.76314062
0.76234055
0.76154118
0.76074041
0.75994096
0.75914089
0.75834152
0.75754277
0.75674270
0.75594395
0.75514527
0.75434582
0.75354784
0.75274909
0.75195104
0.75115236
0.75035431
0.74955626
0.74875890
0.74796015
0.74716279
0.74636544
0.74556808
0.74477003
0.74397337
0.74317664
0.74237998
0.74158332
0.74078596
0.73998923
0.73919327
0.73839723
0.73760127
0.73680523
0.73600927
0.73521393
0.73441727
0.73362193
0.73282659
0.73203126
0.73123661
0.73044128
0.72964663
0.72885199
0.72805735
0.72726271
0.72646876
0.72567482
0.72488018
0.72408686
0.72329291
0.72249896
0.72170565
0.72091170
0.72011845
0.71932513
0.71853251
0.71773926
0.71694663
0.71615338
0.71536076
0.71456883
0.71377691
0.71298498
0.71219236
0.71140050
0.71060857
0.70981727
0.70902534
0.70823481
0.70744358
0.70665235
0.70586105
0.70506982
0.70427858
0.70348868
0.70269814
0.70190761
0.70111700
0.70032779
0.69953725
0.69874734
0.69795751
0.69716829
0.69637908
0.69558917
0.69480066
0.69401144
0.69322154
0.69243239
0.69164450
0.69085599
0.69006677
0.68927895
0.68849044
0.68770324
0.68691473
0.68612621
0.68533971
0.68455120
0.68376470
0.68297688
0.68218899
0.68140249
0.68061537
0.67982887
0.67904167
0.67825587
0.67746875
0.67668295
0.67589645
0.67511065
0.67432415
0.67353904
0.67275255
0.67196744
0.67118164
0.67039646
0.66961136
0.66882625
0.66804177
0.66725667
0.66647219
0.66568708
0.66490330
0.66411889
0.66333441
0.66255063
0.66176622
0.66098244
0.66019935
0.65941494
0.65863185
0.65784877
0.65706498
0.65628259
0.65549950
0.65471704
0.65393396
0.65315157
0.65236918
0.65158609
0.65080432
0.65002263
0.64924086
0.64845917
0.64767678
0.64689571
0.64611402
0.64533295
0.64455188
0.64377018
0.64298912
0.64220874
0.64142837
0.64064800
0.63986763
0.63908663
0.63830626
0.63752651
0.63674621
0.63596646
0.63518748
0.63440781
0.63362813
0.63284908
0.63207010
0.63129105
0.63051207
0.62973309
0.62895474
0.62817576
0.62739740
0.62661905
0.62584076
0.62506311
0.62428475
0.62350710
0.62272944
0.62195178
0.62117419
0.62039716
0.61961957
0.61884254
0.61806558
0.61728862
0.61651166
0.61573470
0.61495906
0.61418279
0.61340653
0.61263019
0.61185393
0.61107836
0.61030341
0.60952777
0.60875221
0.60797657
0.60720093
0.60642668
0.60565181
0.60487617
0.60410123
0.60332628
0.60255273
0.60177848
0.60100354
0.60022999
0.59945574
0.59868219
0.59790795
0.59713502
0.59636078
0.59558723
0.59481500
0.59404145
0.59326783
0.59249567
0.59172274
0.59095052
0.59017766
0.58940474
0.58863320
0.58786105
0.58708951
0.58631729
0.58554506
0.58477353
0.58400199
0.58323116
0.58245893
0.58168879
0.58091726
0.58014642
0.57937552
0.57860538
0.57783384
0.57706433
0.57629349
0.57552335
0.57475314
0.57398363
0.57321279
0.57244398
0.57167453
0.57090432
0.57013551
0.56936599
0.56859725
0.56782843
0.56705891
0.56629079
0.56552128
0.56475316
0.56398504
0.56321622
0.56244872
0.56168130
0.56091318
0.56014506
0.55937756
0.55861014
0.55784271
0.55707522
0.55630849
0.55554169
0.55477426
0.55400746
0.55324136
0.55247456
0.55170783
0.55094173
0.55017563
0.54940953
0.54864412
0.54787802
0.54711191
0.54634651
0.54558110
0.54481569
0.54405098
0.54328627
0.54252080
0.54175539
0.54099068
0.54022660
0.53946189
0.53869787
0.53793379
0.53716970
0.53640569
0.53564160
0.53487822
0.53411420
0.53335081
0.53258743
0.53182411
0.53106142
0.53029803
0.52953534
0.52877264
0.52800995
0.52724726
0.52648457
0.52572250
0.52495981
0.52419781
0.52343582
0.52267515
0.52191315
0.52115108
0.52038978
0.51962841
0.51886712
0.51810575
0.51734445
0.51658447
0.51582380
0.51506319
0.51430252
0.51354185
0.51278187
0.51202189
0.51126191
0.51050124
0.50974126
0.50898268
0.50822270
0.50746342
0.50670344
0.50594479
0.50518551
0.50442692
0.50366827
0.50290968
0.50215040
0.50139244
0.50063386
0.49987590
0.49911794
0.49836005
0.49760140
0.49684413
0.49608624
0.49532961
0.49457172
0.49381376
0.49305719
0.49229993
0.49154406
0.49078680
0.49002954
0.48927360
0.48851640
0.48776046
0.48700390
0.48624865
0.48549209
0.48473691
0.48398035
0.48322510
0.48246923
0.48171468
0.48095874
0.48020427
0.47944972
0.47869378
0.47793993
0.47718475
0.47643020
0.47567635
0.47492111
0.47416726
0.47341271
0.47265955
0.47190570
0.47115185
0.47039800
0.46964547
0.46889092
0.46813846
0.46738524
0.46663208
0.46587893
0.46512640
0.46437456
0.46362141
0.46286895
0.46211712
0.46136528
0.46061213
0.45986029
0.45910916
0.45835732
0.45760486
0.45685387
0.45610273
0.45535159
0.45460115
0.45385001
0.45309818
0.45234774
0.45159723
0.45084679
0.45009635
0.44934653
0.44859609
0.44784635
0.44709653
0.44634609
0.44559628
0.44484653
0.44409741
0.44334836
0.44259925
0.44185013
0.44110101
0.44035196
0.43960354
0.43885442
0.43810600
0.43735758
0.43660915
0.43586143
0.43511300
0.43436528
0.43361755
0.43286976
0.43212203
0.43137500
0.43062790
0.42988087
0.42913314
0.42838604
0.42763901
0.42689261
0.42614558
0.42539987
0.42465347
0.42390713
0.42316073
0.42241433
0.42166799
0.42092298
0.42017727
0.41943157
0.41868586
0.41794015
0.41719584
0.41645013
0.41570512
0.41496010
0.41421572
0.41347071
0.41272639
0.41198201
0.41123769
0.41049338
0.40974969
0.40900537
0.40826099
0.40751799
0.40677437
0.40603069
0.40528769
0.40454407
0.40380038
0.40305809
0.40231447
0.40157217
0.40082918
0.40008619
0.39934458
0.39860159
0.39785992
0.39711762
0.39637602
0.39563373
0.39489213
0.39415046
0.39340955
0.39266725
0.39192628
0.39118468
0.39044440
0.38970280
0.38896252
0.38822092
0.38748064
0.38673974
0.38600016
0.38525988
0.38451960
0.38377932
0.38303911
0.38229953
0.38156058
0.38082037
0.38008078
0.37934183
0.37860225
0.37786336
0.37712447
0.37638559
0.37564663
0.37490844
0.37416886
0.37343130
0.37269311
