corrn_curve_linear
0.81150882
0.81139470
0.81128090
0.81116678
0.81105282
0.81093886
0.81082490
0.81071110
0.81059731
0.81048334
0.81036955
0.81025575
0.81014195
0.81002815
0.80991452
0.80980072
0.80968693
0.80957328
0.80945964
0.80934601
0.80923237
0.80911874
0.80900510
0.80889147
0.80877799
0.80866451
0.80855087
0.80843756
0.80832392
0.80821045
0.80809714
0.80798366
0.80787034
0.80775687
0.80764356
0.80753024
0.80741693
0.80730377
0.80719046
0.80707714
0.80696399
0.80685068
0.80673752
0.80662437
0.80651122
0.80639806
0.80628491
0.80617176
0.80605877
0.80594561
0.80583278
0.80571963
0.80560663
0.80549364
0.80538081
0.80526782
0.80515482
0.80504199
0.80492917
0.80481634
0.80470334
0.80459067
0.80447784
0.80436501
0.80425234
0.80413951
0.80402684
0.80391417
0.80380150
0.80368883
0.80357616
0.80346349
0.80335098
0.80323847
0.80312581
0.80301330
0.80290079
0.80278828
0.80267577
0.80256326
0.80245092
0.80233857
0.80222606
0.80211371
0.80200137
0.80188902
0.80177683
0.80166432
0.80155213
0.80143979
0.80132760
0.80121542
0.80110323
0.80099096
0.80087878
0.80076668
0.80065457
0.80054247
0.80043043
0.80031841
0.80020630
0.80009436
0.79998218
0.79987024
0.79975829
0.79964635
0.79953440
0.79942254
0.79931059
0.79919872
0.79908694
0.79897508
0.79886330
0.79875151
0.79863973
0.79852795
0.79841625
0.79830454
0.79819284
0.79808113
0.79796943
0.79785797
0.79774635
0.79763473
0.79752311
0.79741157
0.79730002
0.79718848
0.79707694
0.79696548
0.79685410
0.79674264
0.79663126
0.79651980
0.79640842
0.79629704
0.79618582
0.79607444
0.79596314
0.79585184
0.79574054
0.79562940
0.79551810
0.79540688
0.79529567
0.79518461
0.79507339
0.79496225
0.79485111
0.79474013
0.79462900
0.79451794
0.79440696
0.79429590
0.79418484
0.79407403
0.79396297
0.79385199
0.79374118
0.79363028
0.79351931
0.79340857
0.79329767
0.79318693
0.79307604
0.79296539
0.79285457
0.79274375
0.79263310
0.79252236
0.79241171
0.79230106
0.79219048
0.79207974
0.79196925
0.79185859
0.79174810
0.79163744
0.79152695
0.79141638
0.79130596
0.79119547
0.79108506
0.79097456
0.79086415
0.79075374
0.79064340
0.79053307
0.79042266
0.79031241
0.79020208
0.79009182
0.78998157
0.78987124
0.78976107
0.78965098
0.78954064
0.78943055
0.78932046
0.78921021
0.78910020
0.78899011
0.78887994
0.78876993
0.78866000
0.78854999
0.78843990
0.78832997
0.78822004
0.78811011
0.78800010
0.78789025
0.78778040
0.78767056
0.78756079
0.78745086
0.78734109
0.78723132
0.78712155
0.78701186
0.78690202
0.78679233
0.78668264
0.78657303
0.78646334
0.78635374
0.78624413
0.78613460
0.78602500
0.78591539
0.78580586
0.78569634
0.78558681
0.78547737
0.78536792
0.78525847
0.78514902
0.78503966
0.78493030
0.78482093
0.78471157
0.78460228
0.78449292
0.78438363
0.78427434
0.78416514
0.78405586
0.78394665
0.78383745
0.78372824
0.78361928
0.78351008
0.78340095
0.78329183
0.78318279
0.78307366
0.78296462
0.78285558
0.78274653
0.78263765
0.78252869
0.78241973
0.78231076
0.78220180
0.78209292
0.78198412
0.78187524
0.78176643
0.78165755
0.78154883
0.78144004
0.78133123
0.78122251
0.78111387
0.78100515
0.78089643
0.78078771
0.78067915
0.78057051
0.78046187
0.78035331
0.78024475
0.78013611
0.78002763
0.77991907
0.77981059
0.77970219
0.77959363
0.77948516
0.77937684
0.77926836
0.77916004
0.77905164
0.77894325
0.77883501
0.77872661
0.77861837
0.77851005
0.77840190
0.77829358
0.77818542
0.77807719
0.77796911
0.77786087
0.77775280
0.77764456
0.77753656
0.77742841
0.77732033
0.77721226
0.77710427
0.77699619
0.77688828
0.77678020
0.77667228
0.77656445
0.77645645
0.77634854
0.77624062
0.77613279
0.77602504
0.77591712
0.77580937
0.77570162
0.77559370
0.77548603
0.77537836
0.77527052
0.77516284
0.77505525
0.77494750
0.77483991
0.77473231
0.77462472
0.77451705
0.77440954
0.77430195
0.77419451
0.77408685
0.77397941
0.77387198
0.77376455
0.77365696
0.77354961
0.77344226
0.77333483
0.77322755
0.77312021
0.77301277
0.77290550
0.77279815
0.77269097
0.77258370
0.77247651
0.77236924
0.77226213
0.77215477
0.77204767
0.77194047
0.77183337
0.77172626
0.77161924
0.77151212
0.77140509
0.77129807
0.77119104
0.77108409
0.77097706
0.77087011
0.77076317
0.77065622
0.77054935
0.77044249
0.77033554
0.77022875
0.77012189
0.77001502
0.76990823
0.76980145
0.76969482
0.76958804
0.76948133
0.76937462
0.76926792
0.76916121
0.76905459
0.76894788
0.76884142
0.76873479
0.76862817
0.76852162
0.76841508
0.76830854
0.76820207
0.76809561
0.76798906
0.76788259
0.76777613
0.76766983
0.76756344
0.76745698
0.76735060
0.76724437
0.76713800
0.76703169
0.76692547
0.76681917
0.76671286
0.76660664
0.76650050
0.76639427
0.76628805
0.76618199
0.76607577
0.76596971
0.76586357
0.76575742
0.76565145
0.76554538
0.76543925
0.76533335
0.76522728
0.76512138
0.76501540
0.76490950
0.76480353
0.76469754
0.76459172
0.76448582
0.76438000
0.76427410
0.76416837
0.76406254
0.76395681
0.76385099
0.76374525
0.76363951
0.76353385
0.76342819
0.76332246
0.76321688
0.76311114
0.76300556
0.76289990
0.76279440
0.76268891
0.76258325
0.76247775
0.76237218
0.76226676
0.76216134
0.76205576
0.76195035
0.76184501
0.76173952
0.76163418
0.76152885
0.76142343
0.76131810
0.76121284
0.76110759
0.76100225
0.76089699
0.76079182
0.76068656
0.76058131
0.76047613
0.76037096
0.76026587
0.76016061
0.76005552
0.75995051
0.75984541
0.75974040
0.75963538
0.75953021
0.75942519
0.75932026
0.75921533
0.75911040
0.75900547
0.75890053
0.75879552
0.75869066
0.75858581
0.75848096
0.75837611
0.75827134
0.75816657
0.75806179
0.75795703
0.75785226
0.75774756
0.75764288
0.75753818
0.75743349
0.75732888
0.75722419
0.75711958
0.75701497
0.75691044
0.75680583
0.75670130
0.75659677
0.75649224
0.75638771
0.75628326
0.75617873
0.75607428
0.75596999
0.75586562
0.75576118
0.75565680
0.75555244
0.75544807
0.75534378
0.75523941
0.75513529
0.75503100
0.75492671
0.75482242
0.75471822
0.75461409
0.75450988
0.75440575
0.75430154
0.75419750
0.75409337
0.75398925
0.75388520
0.75378124
0.75367710
0.75357306
0.75346902
0.75336513
0.75326116
0.75315720
0.75305331
0.75294935
0.75284546
0.75274166
0.75263769
0.75253381
0.75243009
0.75232628
0.75222240
0.75211868
0.75201486
0.75191123
0.75180750
0.75170386
0.75160013
0.75149641
0.75139277
0.75128912
0.75118556
0.75108192
0.75097836
0.75087479
0.75077131
0.75066766
0.75056427
0.75046070
0.75035730
0.75025374
0.75015034
0.75004686
0.74994353
0.74984022
0.74973673
0.74963349
0.74953001
0.74942677
0.74932337
0.74922013
0.74911697
0.74901364
0.74891041
0.74880725
0.74870401
0.74860085
0.74849777
0.74839453
0.74829145
0.74818837
0.74808513
0.74798213
0.74787913
0.74777598
0.74767297
0.74756998
0.74746706
0.74736398
0.74726106
0.74715814
0.74705530
0.74695231
0.74684939
0.74674655
0.74664371
0.74654096
0.74643812
0.74633520
0.74623244
0.74612977
0.74602701
0.74592426
0.74582158
0.74571891
0.74561615
0.74551347
0.74541088
0.74530828
0.74520560
0.74510309
0.74500049
0.74489798
0.74479538
0.74469287
0.74459043
0.74448792
0.74438541
0.74428297
0.74418054
0.74407810
0.74397575
0.74387331
0.74377096
0.74366860
0.74356625
0.74346398
0.74336162
0.74325935
0.74315708
0.74305480
0.74295261
0.74285034
0.74274815
0.74264595
0.74254392
0.74244173
0.74233962
0.74223751
0.74213539
0.74203328
0.74193117
0.74182922
0.74172719
0.74162516
0.74152313
0.74142117
0.74131930
0.74121736
0.74111540
0.74101345
0.74091167
0.74080971
0.74070784
0.74060597
0.74050427
0.74040239
0.74030060
0.74019882
0.74009711
0.73999532
0.73989360
0.73979198
0.73969027
0.73958856
0.73948693
0.73938531
0.73928376
0.73918205
0.73908042
0.73897895
0.73887741
0.73877577
0.73867431
0.73857276
0.73847137
0.73836983
0.73826844
0.73816697
0.73806566
0.73796420
0.73786289
0.73776142
0.73766004
0.73755881
0.73745743
0.73735620
0.73725498
0.73715359
0.73705245
0.73695113
0.73685000
0.73674869
0.73664762
0.73654639
0.73644526
0.73634418
0.73624305
0.73614198
0.73604084
0.73593977
0.73583878
0.73573772
0.73563674
0.73553576
0.73543469
0.73533379
0.73523288
0.73513190
0.73503099
0.73493018
0.73482919
0.73472837
0.73462755
0.73452681
0.73442590
0.73432508
0.73422434
0.73412368
0.73402277
0.73392211
0.73382145
0.73372079
0.73362013
0.73351938
0.73341872
0.73331815
0.73321756
0.73311699
0.73301640
0.73291590
0.73281524
0.73271474
0.73261424
0.73251374
0.73241332
0.73231290
0.73221240
0.73211198
0.73201164
0.73191122
0.73181089
0.73171038
0.73161005
0.73150971
0.73140945
0.73130919
0.73120885
0.73110859
0.73100842
0.73090816
0.73080798
0.73070772
0.73060754
0.73050753
0.73040743
0.73030726
0.73020716
0.73010706
0.73000696
0.72990686
0.72980685
0.72970683
0.72960682
0.72950679
0.72940694
0.72930693
0.72920699
0.72910706
0.72900712
0.72890718
0.72880741
0.72870755
0.72860770
0.72850784
0.72840799
0.72830829
0.72820852
0.72810866
0.72800888
0.72790927
0.72780958
0.72770980
0.72761011
0.72751050
0.72741089
0.72731119
0.72721166
0.72711205
0.72701243
0.72691282
0.72681336
0.72671375
0.72661438
0.72651484
0.72641531
0.72631586
0.72621641
0.72611695
0.72601758
0.72591813
0.72581884
0.72571939
0.72562002
0.72552072
0.72542135
0.72532214
0.72522285
0.72512364
0.72502427
0.72492514
0.72482585
0.72472671
0.72462751
0.72452838
0.72442917
0.72433004
0.72423090
0.72413185
0.72403273
0.72393368
0.72383463
0.72373558
0.72363661
0.72353748
0.72343859
0.72333962
0.72324065
0.72314177
0.72304272
0.72294383
0.72284502
0.72274605
0.72264725
0.72254844
0.72244955
0.72235074
0.72225201
0.72215313
0.72205440
0.72195575
0.72185703
0.72175822
0.72165957
0.72156093
0.72146228
0.72136355
0.72126491
0.72116634
0.72106777
0.72096921
0.72087056
0.72077199
0.72067351
0.72057502
0.72047654
0.72037806
0.72027948
0.72018109
0.72008268
0.71998427
0.71988587
0.71978746
0.71968914
0.71959082
0.71949234
0.71939401
0.71929576
0.71919744
0.71909920
0.71900096
0.71890271
0.71880447
0.71870630
0.71860806
0.71850990
0.71841173
0.71831358
0.71821549
0.71811732
0.71801925
0.71792116
0.71782308
0.71772500
0.71762699
0.71752899
0.71743099
0.71733307
0.71723507
0.71713715
0.71703923
0.71694123
0.71684330
0.71674547
0.71664755
0.71654978
0.71645194
0.71635410
0.71625626
0.71615842
0.71606066
0.71596298
0.71586522
0.71576746
0.71566970
0.71557202
0.71547442
0.71537674
0.71527906
0.71518138
0.71508387
0.71498627
0.71488859
0.71479115
0.71469355
0.71459596
0.71449852
0.71440100
0.71430348
0.71420596
0.71410861
0.71401109
0.71391373
0.71381629
0.71371886
0.71362158
0.71352414
0.71342679
0.71332951
0.71323215
0.71313496
0.71303760
0.71294040
0.71284313
0.71274577
0.71264866
0.71255138
0.71245426
0.71235707
0.71225995
0.71216276
0.71206572
0.71196853
0.71187149
0.71177437
0.71167734
0.71158039
0.71148327
0.71138632
0.71128929
0.71119233
0.71109530
0.71099842
0.71090147
0.71080452
0.71070764
0.71061068
0.71051390
0.71041710
0.71032015
0.71022336
0.71012664
0.71002977
0.70993297
0.70983627
0.70973947
0.70964276
0.70954605
0.70944942
0.70935262
0.70925599
0.70915944
0.70906281
0.70896610
0.70886955
0.70877300
0.70867644
0.70857981
0.70848326
0.70838679
0.70829032
0.70819385
0.70809722
0.70800083
0.70790436
0.70780797
0.70771158
0.70761519
0.70751880
0.70742249
0.70732602
0.70722971
0.70713340
0.70703709
0.70694087
0.70684456
0.70674833
0.70665209
0.70655587
0.70645964
0.70636349
0.70626727
0.70617111
0.70607497
0.70597890
0.70588275
0.70578668
0.70569054
0.70559447
0.70549840
0.70540242
0.70530635
0.70521036
0.70511437
0.70501838
0.70492240
0.70482641
0.70473051
0.70463468
0.70453877
0.70444287
0.70434704
0.70425114
0.70415531
0.70405948
0.70396374
0.70386791
0.70377217
0.70367634
0.70358060
0.70348485
0.70338927
0.70329353
0.70319786
0.70310211
0.70300653
0.70291095
0.70281528
0.70271962
0.70262411
0.70252853
0.70243295
0.70233744
0.70224194
0.70214636
0.70205085
0.70195543
0.70185993
0.70176442
0.70166909
0.70157366
0.70147831
0.70138290
0.70128747
0.70119221
0.70109679
0.70100153
0.70090618
0.70081084
0.70071566
0.70062032
0.70052514
0.70042987
0.70033469
0.70023943
0.70014434
0.70004916
0.69995405
0.69985879
0.69976377
0.69966859
0.69957357
0.69947839
0.69938337
0.69928827
0.69919333
0.69909823
0.69900329
0.69890827
0.69881333
0.69871840
0.69862337
0.69852852
0.69843358
0.69833872
0.69824386
0.69814892
0.69805414
0.69795936
0.69786442
0.69776965
0.69767495
0.69758009
0.69748532
0.69739062
0.69729584
0.69720114
0.69710652
0.69701182
0.69691713
0.69682251
0.69672789
0.69663328
0.69653858
0.69644405
0.69634951
0.69625497
0.69616043
0.69606582
0.69597136
0.69587683
0.69578237
0.69568792
0.69559354
0.69549901
0.69540455
0.69531017
0.69521580
0.69512143
0.69502713
0.69493276
0.69483846
0.69474417
0.69464987
0.69455558
0.69446120
0.69436699
0.69427269
0.69417848
0.69408427
0.69399014
0.69389592
0.69380179
0.69370765
0.69361352
0.69351939
0.69342526
0.69333120
0.69323707
0.69314318
0.69304912
0.69295507
0.69286102
0.69276705
0.69267308
0.69257910
0.69248514
0.69239116
0.69229727
0.69220346
0.69210957
0.69201568
0.69192178
0.69182789
0.69173408
0.69164019
0.69154654
0.69145273
0.69135892
0.69126511
0.69117138
0.69107772
0.69098400
0.69089027
0.69079654
0.69070297
0.69060932
0.69051567
0.69042210
0.69032845
0.69023488
0.69014123
0.69004774
0.68995417
0.68986060
0.68976720
0.68967363
0.68958014
0.68948673
0.68939324
0.68929984
0.68920635
0.68911294
0.68901961
0.68892620
0.68883288
0.68873947
0.68864614
0.68855281
0.68845949
0.68836624
0.68827291
0.68817975
0.68808642
0.68799325
0.68790001
0.68780684
0.68771360
0.68762051
0.68752727
0.68743417
0.68734101
0.68724793
0.68715476
0.68706175
0.68696867
0.68687567
0.68678266
0.68668958
0.68659657
0.68650357
0.68641056
0.68631771
0.68622463
0.68613179
0.68603886
0.68594593
0.68585309
0.68576025
0.68566733
0.68557449
0.68548172
0.68538880
0.68529603
0.68520327
0.68511051
0.68501775
0.68492498
0.68483230
0.68473954
0.68464685
0.68455417
0.68446157
0.68436889
0.68427620
0.68418360
0.68409100
0.68399848
0.68390587
0.68381335
0.68372067
0.68362815
0.68353571
0.68344319
0.68335074
0.68325822
0.68316578
0.68307326
0.68298082
0.68288846
0.68279602
0.68270366
0.68261130
0.68251894
0.68242666
0.68233430
0.68224202
0.68214966
0.68205738
0.68196518
0.68187290
0.68178063
0.68168843
0.68159623
0.68150403
0.68141183
0.68131971
0.68122751
0.68113539
0.68104328
0.68095116
0.68085904
0.68076692
0.68067496
0.68058293
0.68049088
0.68039885
0.68030681
0.68021485
0.68012282
0.68003094
0.67993898
0.67984703
0.67975515
0.67966319
0.67957131
0.67947952
0.67938765
0.67929577
0.67920389
0.67911218
0.67902038
0.67892850
0.67883671
0.67874507
0.67865327
0.67856156
0.67846976
0.67837821
0.67828649
0.67819478
0.67810314
0.67801151
0.67791987
0.67782832
0.67773669
0.67764505
0.67755357
0.67746194
0.67737039
0.67727891
0.67718736
0.67709597
0.67700441
0.67691294
0.67682155
0.67673007
0.67663868
0.67654721
0.67645589
0.67636442
0.67627319
0.67618172
0.67609048
0.67599909
0.67590786
0.67581646
0.67572531
0.67563392
0.67554277
0.67545145
0.67536031
0.67526899
0.67517792
0.67508677
0.67499554
0.67490447
0.67481323
0.67472216
0.67463109
0.67453994
0.67444887
0.67435780
0.67426673
0.67417574
0.67408467
0.67399368
0.67390277
0.67381170
0.67372079
0.67362988
0.67353897
0.67344798
0.67335715
0.67326624
0.67317541
0.67308451
0.67299368
0.67290285
0.67281202
0.67272119
0.67263044
0.67253969
0.67244895
0.67235820
0.67226737
0.67217670
0.67208603
0.67199536
0.67190470
0.67181403
0.67172328
0.67163270
0.67154211
0.67145152
0.67136093
0.67127035
0.67117976
0.67108925
0.67099874
0.67090824
0.67081774
0.67072714
0.67063664
0.67054621
0.67045579
0.67036536
0.67027493
0.67018451
0.67009417
0.67000382
0.66991340
0.66982305
0.66973270
0.66964252
0.66955225
0.66946191
0.66937164
0.66928138
0.66919111
0.66910085
0.66901067
0.66892048
0.66883022
0.66874003
0.66865001
0.66855983
0.66846972
0.66837954
0.66828943
0.66819933
0.66810931
0.66801929
0.66792918
0.66783916
0.66774906
0.66765919
0.66756917
0.66747915
0.66738920
0.66729918
0.66720933
0.66711938
0.66702944
0.66693966
0.66684971
0.66675985
0.66666999
0.66658021
0.66649034
0.66640049
0.66631079
0.66622101
0.66613122
0.66604153
0.66595174
0.66586204
0.66577234
0.66568256
0.66559302
0.66550324
0.66541370
0.66532400
0.66523430
0.66514476
0.66505514
0.66496560
0.66487598
0.66478652
0.66469690
0.66460744
0.66451790
0.66442845
0.66433890
0.66424953
0.66415998
0.66407061
0.66398115
0.66389177
0.66380231
0.66371293
0.66362355
0.66353418
0.66344488
0.66335550
0.66326628
0.66317691
0.66308761
0.66299839
0.66290909
0.66281988
0.66273066
0.66264144
0.66255223
0.66246309
0.66237388
0.66228474
0.66219560
0.66210638
0.66201732
0.66192829
0.66183916
0.66175002
0.66166096
0.66157199
0.66148285
0.66139388
0.66130490
0.66121592
0.66112695
0.66103789
0.66094900
0.66086003
0.66077113
0.66068224
0.66059326
0.66050445
0.66041555
0.66032674
0.66023793
0.66014911
0.66006029
0.65997148
0.65988259
0.65979385
0.65970512
0.65961639
0.65952765
0.65943892
0.65935027
0.65926162
0.65917288
0.65908423
0.65899558
0.65890700
0.65881835
0.65872977
0.65864112
0.65855255
0.65846398
0.65837549
0.65828691
0.65819843
0.65810985
0.65802136
0.65793287
0.65784446
0.65775596
0.65766748
0.65757922
0.65749074
0.65740232
0.65731399
0.65722558
0.65713717
0.65704884
0.65696051
0.65687226
0.65678393
0.65669568
0.65660735
0.65651910
0.65643093
0.65634268
0.65625443
0.65616618
0.65607801
0.65598985
0.65590167
0.65581350
0.65572534
0.65563733
0.65554916
0.65546107
0.65537306
0.65528489
0.65519689
0.65510887
0.65502079
0.65493278
0.65484485
0.65475684
0.65466883
0.65458091
0.65449290
0.65440497
0.65431712
0.65422920
0.65414135
0.65405342
0.65396550
0.65387773
0.65378980
0.65370204
0.65361419
0.65352650
0.65343866
0.65335097
0.65326312
0.65317544
0.65308767
0.65299998
0.65291222
0.65282461
0.65273692
0.65264932
0.65256155
0.65247403
0.65238635
0.65229874
0.65221113
0.65212361
0.65203609
0.65194848
0.65186096
0.65177336
