corrn_curve_cubic
2.55361292
2.55251419
2.55140907
2.55030060
2.54918575
2.54806766
2.54694467
2.54581693
2.54468430
2.54354686
2.54240628
2.54125936
2.54010924
2.53895269
2.53779306
2.53662870
2.53545961
2.53428581
2.53310892
2.53192571
2.53073953
2.52954696
2.52835310
2.52715286
2.52594807
2.52473855
2.52352442
2.52230743
2.52108417
2.51985801
2.51862727
2.51739197
2.51615211
2.51490770
2.51366048
2.51240701
2.51115085
2.50989020
2.50862320
2.50735348
2.50607937
2.50480257
2.50351946
2.50223200
2.50094189
2.49964737
2.49834844
2.49704321
2.49573740
2.49442531
2.49310884
2.49178995
2.49046478
2.48913711
2.48780521
2.48646900
2.48512839
2.48378358
2.48243439
2.48108101
2.47972724
2.47836525
2.47700101
2.47563253
2.47425792
2.47288302
2.47150191
2.47011863
2.46872914
2.46733741
2.46594163
2.46454170
2.46313753
2.46172932
2.46031700
2.45890254
2.45748190
2.45605936
2.45463265
2.45320186
2.45176502
2.45032813
2.44888530
2.44743834
2.44598735
2.44453449
2.44307967
2.44161669
2.44015188
2.43868309
2.43721024
2.43573561
2.43425499
2.43277250
2.43128621
2.42979482
2.42830062
2.42680363
2.42530068
2.42379706
2.42228848
2.42077718
2.41925980
2.41774083
2.41621794
2.41469022
2.41316096
2.41162780
2.41009212
2.40855142
2.40700594
2.40545887
2.40390819
2.40235481
2.40079657
2.39923462
2.39767013
2.39610206
2.39453125
2.39295689
2.39137887
2.38979487
2.38821073
2.38662180
2.38503030
2.38343649
2.38183779
2.38023680
2.37863212
2.37702399
2.37541218
2.37379801
2.37217911
2.37055679
2.36893203
2.36730497
2.36567320
2.36403914
2.36240161
2.36076181
2.35911722
2.35747052
2.35582270
2.35416912
2.35251322
2.35085404
2.34919133
2.34752534
2.34585585
2.34418422
2.34250935
2.34083100
2.33914930
2.33746551
2.33577965
2.33409035
2.33239661
2.33069957
2.32900051
2.32729816
2.32559496
2.32388608
2.32217510
2.32046100
2.31874354
2.31702542
2.31530166
2.31357584
2.31184683
2.31011476
2.30838185
2.30664460
2.30490420
2.30316325
2.30141656
2.29966805
2.29791642
2.29616286
2.29440633
2.29264539
2.29088388
2.28911797
2.28735046
2.28558108
2.28380601
2.28203189
2.28025222
2.27846940
2.27668624
2.27489875
2.27310827
2.27131749
2.26952106
2.26772557
2.26592322
2.26412198
2.26231633
2.26050924
2.25869652
2.25688484
2.25506755
2.25325009
2.25142853
2.24960670
2.24777927
2.24595174
2.24411862
2.24228679
2.24044939
2.23861194
2.23676892
2.23492726
2.23308129
2.23123130
2.22938131
2.22752704
2.22567156
2.22381459
2.22195224
2.22008982
2.21822610
2.21635687
2.21448775
2.21261596
2.21073880
2.20886308
2.20698328
2.20510084
2.20321703
2.20133074
2.19944324
2.19755029
2.19565744
2.19376214
2.19186554
2.18996365
2.18806191
2.18615762
2.18425077
2.18234009
2.18042961
2.17851661
2.17660110
2.17468453
2.17276402
2.17084102
2.16891699
2.16699049
2.16506285
2.16313290
2.16120036
2.15926553
2.15732814
2.15538993
2.15344639
2.15150323
2.14955916
2.14761124
2.14566256
2.14371137
2.14175931
2.13980342
2.13784668
2.13588746
2.13392608
2.13196238
2.12999786
2.12802957
2.12606033
2.12409045
2.12211667
2.12014228
2.11816548
2.11618660
2.11420533
2.11222484
2.11024064
2.10825424
2.10626563
2.10427634
2.10228488
2.10028973
2.09829393
2.09629901
2.09430043
2.09229956
2.09029672
2.08829175
2.08628452
2.08427976
2.08226848
2.08025803
2.07824411
2.07622798
2.07421438
2.07219567
2.07017507
2.06815227
2.06613053
2.06410524
2.06207793
2.06005156
2.05802181
2.05598852
2.05395776
2.05192208
2.04988584
2.04784936
2.04580924
2.04376733
2.04172490
2.03968055
2.03763446
2.03558787
2.03353783
2.03148903
2.02943680
2.02738113
2.02532831
2.02327051
2.02121385
2.01915394
2.01709378
2.01503024
2.01296630
2.01090231
2.00883478
2.00676722
2.00469613
2.00262646
2.00055360
1.99848041
1.99640708
1.99432884
1.99225205
1.99017196
1.98809175
1.98600985
1.98392785
1.98184401
1.97975545
1.97767004
1.97557975
1.97349087
1.97140195
1.96930674
1.96721456
1.96512077
1.96302230
1.96092692
1.95882832
1.95672669
1.95462655
1.95252630
1.95041996
1.94831675
1.94621185
1.94410557
1.94199614
1.93988682
1.93777744
1.93566673
1.93355127
1.93143904
1.92932370
1.92720868
1.92509204
1.92297068
1.92085293
1.91873195
1.91661117
1.91448897
1.91236699
1.91024033
1.90811391
1.90598773
1.90386001
1.90173273
1.89960243
1.89747226
1.89534089
1.89320803
1.89107564
1.88893845
1.88680342
1.88466690
1.88252909
1.88039014
1.87825139
1.87611137
1.87397007
1.87182751
1.86968535
1.86754194
1.86539729
1.86325124
1.86110414
1.85895748
1.85681111
1.85466370
1.85251328
1.85036183
1.84821070
1.84605857
1.84390512
1.84175050
1.83959641
1.83744136
1.83528667
1.83312919
1.83097227
1.82881256
1.82665343
1.82449321
1.82233509
1.82017439
1.81801094
1.81584793
1.81368404
1.81152231
1.80935802
1.80719084
1.80502450
1.80286034
1.80069181
1.79852396
1.79635512
1.79418698
1.79201787
1.78984626
1.78767674
1.78550474
1.78333179
1.78116130
1.77898800
1.77681226
1.77464069
1.77246465
1.77028788
1.76811344
1.76593658
1.76376208
1.76158330
1.75940383
1.75722674
1.75504710
1.75287002
1.75068871
1.74850997
1.74632872
1.74414836
1.74196548
1.73978523
1.73760231
1.73542049
1.73323619
1.73105437
1.72886854
1.72668522
1.72449960
1.72231480
1.72012772
1.71794317
1.71575963
1.71357024
1.71138529
1.70919622
1.70700990
1.70482462
1.70263352
1.70044691
1.69825621
1.69606812
1.69388129
1.69169039
1.68950040
1.68731170
1.68512049
1.68293057
1.68073988
1.67855033
1.67635864
1.67416793
1.67197666
1.66978310
1.66759244
1.66540123
1.66320949
1.66101722
1.65882270
1.65663111
1.65443902
1.65224798
1.65005489
1.64785959
1.64566709
1.64347429
1.64128086
1.63908869
1.63689452
1.63469973
1.63250624
1.63031249
1.62811988
1.62592512
1.62373169
1.62153785
1.61934535
1.61715074
1.61495731
1.61276368
1.61056968
1.60837689
1.60618045
1.60398714
1.60179331
1.59959934
1.59740486
1.59521198
1.59302036
1.59082670
1.58863274
1.58644024
1.58424745
1.58205283
1.57986107
1.57766749
1.57547366
1.57328132
1.57108875
1.56889594
1.56670291
1.56451297
1.56232125
1.56012916
1.55793704
1.55574631
1.55355382
1.55136273
1.54917321
1.54698196
1.54479213
1.54260041
1.54041028
1.53822351
1.53603313
1.53384263
1.53165377
1.52946636
1.52727728
1.52508986
1.52290061
1.52071460
1.51852694
1.51633922
1.51415475
1.51196675
1.50978063
1.50759603
1.50540966
1.50322519
1.50104209
1.49885585
1.49667118
1.49448999
1.49230533
1.49012417
1.48794130
1.48575828
1.48357722
1.48139620
1.47921680
1.47703590
1.47485680
1.47267586
1.47049691
1.46831962
1.46613911
1.46396375
1.46178502
1.45960988
1.45743155
1.45525822
1.45308189
1.45090727
1.44873436
1.44656004
1.44438762
1.44221363
1.44004328
1.43786964
1.43569949
1.43353127
1.43135995
1.42919058
1.42702124
1.42485404
1.42268689
1.42051823
1.41835329
1.41618877
1.41402259
1.41185841
1.40969623
1.40753085
1.40536922
1.40320788
1.40104683
1.39888435
1.39672547
1.39456707
1.39240882
1.39024933
1.38809365
1.38593813
1.38378295
1.38162830
1.37947210
1.37731817
1.37516617
1.37301455
1.37086332
1.36871074
1.36656202
1.36441198
1.36226407
1.36011831
1.35797125
1.35582617
1.35367997
1.35153421
1.34939064
1.34724751
1.34510641
1.34296577
1.34082577
1.33868609
1.33654862
1.33441009
1.33227361
1.33013764
1.32800219
1.32586897
1.32373473
1.32160240
1.31947079
1.31733971
1.31521091
1.31308095
1.31095327
1.30882599
1.30669946
1.30457523
1.30245313
1.30032991
1.29820747
1.29608546
1.29396424
1.29184519
1.28972676
1.28760913
1.28549369
1.28337890
1.28126304
1.27914956
1.27703674
1.27492459
1.27281654
1.27070730
1.26859891
1.26649122
1.26438748
1.26228120
1.26017717
1.25807233
1.25597316
1.25387149
1.25177038
1.24967190
1.24757570
1.24547856
1.24338388
1.24128997
1.23919684
1.23710449
1.23501464
1.23292387
1.23083561
1.22874985
1.22666321
1.22457739
1.22249392
1.22041145
1.21833135
1.21625056
1.21417215
1.21209307
1.21001638
1.20794224
1.20586577
1.20379508
1.20172190
1.19965299
1.19758160
1.19551618
1.19344829
1.19138301
1.18931865
1.18725691
1.18519273
1.18313437
1.18107376
1.17901747
1.17696197
1.17490425
1.17285236
1.17079826
1.16874834
1.16669940
1.16464827
1.16260300
1.16055539
1.15851214
1.15646990
1.15442552
1.15238685
1.15034770
1.14830961
1.14627422
1.14423990
1.14220496
1.14017276
1.13814313
1.13611474
1.13408411
1.13205939
1.13003411
1.12801175
1.12598702
1.12396837
1.12194936
1.11993130
1.11791603
1.11589858
1.11388724
1.11187540
1.10986471
1.10785683
1.10585012
1.10384128
1.10183856
1.09983522
1.09783487
1.09583572
1.09383761
1.09184086
1.08984517
1.08785250
1.08585760
1.08386739
1.08187988
1.07989198
1.07790696
1.07592172
1.07393921
1.07195959
1.06997962
1.06800239
1.06602513
1.06405047
1.06207726
1.06010698
1.05813638
1.05616855
1.05420220
1.05223717
1.05027655
1.04831401
1.04635460
1.04439637
1.04243965
1.04048413
1.03853158
1.03657895
1.03462914
1.03268378
1.03073689
1.02879268
1.02684858
1.02490733
1.02296733
1.02103211
1.01909509
1.01716110
1.01522838
1.01329726
1.01136901
1.00944237
1.00751543
1.00559169
1.00367086
1.00175005
0.99983216
0.99791733
0.99600240
0.99408736
0.99217701
0.99026815
0.98836079
0.98645495
0.98455221
0.98264941
0.98075130
0.97885156
0.97695479
0.97506129
0.97316777
0.97127565
0.96938840
0.96750098
0.96561670
0.96373259
0.96185304
0.95997211
0.95809574
0.95621941
0.95434468
0.95247313
0.95060319
0.94873643
0.94686819
0.94500624
0.94314283
0.94128416
0.93942698
0.93756851
0.93571635
0.93386261
0.93201223
0.93016354
0.92831791
0.92647397
0.92463033
0.92279131
0.92095093
0.91911547
0.91728158
0.91544787
0.91361895
0.91179176
0.90996324
0.90813953
0.90631908
0.90449733
0.90268023
0.90086505
0.89904859
0.89723846
0.89542844
0.89362186
0.89181390
0.89001091
0.88821107
0.88641153
0.88461244
0.88281803
0.88102543
0.87923482
0.87744738
0.87565877
0.87387501
0.87209309
0.87031302
0.86853481
0.86675980
0.86498531
0.86321270
0.86144346
0.85967610
0.85791196
0.85614838
0.85438803
0.85262973
0.85087319
0.84912004
0.84736748
0.84561817
0.84387079
0.84212549
0.84038345
0.83864043
0.83690228
0.83516609
0.83343332
0.83170105
0.82997222
0.82824521
0.82652032
0.82479742
0.82307652
0.82135746
0.81964200
0.81792855
0.81621696
0.81450754
0.81279999
0.81109591
0.80939544
0.80769542
0.80599745
0.80430152
0.80260908
0.80091884
0.79922909
0.79754554
0.79586136
0.79418068
0.79250066
0.79082414
0.78915114
0.78748008
0.78580986
0.78414316
0.78247984
0.78081736
0.77915687
0.77749865
0.77584523
0.77419254
0.77254213
0.77089513
0.76924888
0.76760619
0.76596705
0.76432868
0.76269124
0.76105986
0.75942817
0.75779977
0.75617508
0.75455121
0.75293215
0.75131269
0.74969544
0.74808316
0.74647158
0.74486497
0.74325799
0.74165584
0.74005334
0.73845432
0.73686026
0.73526588
0.73367498
0.73208634
0.73050133
0.72891724
0.72733678
0.72575860
0.72418405
0.72261180
0.72103917
0.71947272
0.71790604
0.71634435
0.71478231
0.71322645
0.71167158
0.71011786
0.70856899
0.70702260
0.70547578
0.70393526
0.70239461
0.70085750
0.69932407
0.69779169
0.69626301
0.69473670
0.69321408
0.69169125
0.69017341
0.68865797
0.68714365
0.68563303
0.68412598
0.68262148
0.68111811
0.67961833
0.67812111
0.67662749
0.67513630
0.67364513
0.67215885
0.67067514
0.66919504
0.66771740
0.66624223
0.66476714
0.66329693
0.66183034
0.66036523
0.65890362
0.65744463
0.65598814
0.65453541
0.65308395
0.65163612
0.65018846
0.64874581
0.64730680
0.64586921
0.64443528
0.64300278
0.64157394
0.64014888
0.63872528
0.63730412
0.63588674
0.63447195
0.63305985
0.63165021
0.63024437
0.62883991
0.62744154
0.62604349
0.62464803
0.62325519
0.62186617
0.62047844
0.61909466
0.61771350
0.61633605
0.61496016
0.61358917
0.61221975
0.61085287
0.60948864
0.60812720
0.60676947
0.60541558
0.60406320
0.60271349
0.60136658
0.60002445
0.59868397
0.59734514
0.59600994
0.59467986
0.59335019
0.59202438
0.59070014
0.58938194
0.58806430
0.58674928
0.58543938
0.58413097
0.58282429
0.58152363
0.58022347
0.57892619
0.57763379
0.57634305
0.57505507
0.57377110
0.57248869
0.57121128
0.56993555
0.56866151
0.56739346
0.56612613
0.56486380
0.56360209
0.56234538
0.56109029
0.55984031
0.55859098
0.55734655
0.55610290
0.55486414
0.55362726
0.55239527
0.55116399
0.54993771
0.54871333
0.54749278
0.54627404
0.54505923
0.54384731
0.54263932
0.54143422
0.54023097
0.53903166
0.53783629
0.53664176
0.53545210
0.53426443
0.53308072
0.53190085
0.53072196
0.52954795
0.52837698
0.52720783
0.52604376
0.52488152
0.52372325
0.52256702
0.52141467
0.52026528
0.51911986
0.51797542
0.51683596
0.51569947
0.51456598
0.51343449
0.51230796
0.51118434
0.51006382
0.50894631
0.50783083
0.50671926
0.50561177
0.50450721
0.50340577
0.50230727
0.50121190
0.50012044
0.49903021
0.49794485
0.49686254
0.49578329
0.49470804
0.49363492
0.49256581
0.49149978
0.49043683
0.48937696
0.48832110
0.48726834
0.48621775
0.48517201
0.48412855
0.48308819
0.48205177
0.48101765
0.47998756
0.47896051
0.47793748
0.47691678
0.47590002
0.47488560
0.47387514
0.47286870
0.47186542
0.47086529
0.46986745
0.46887374
0.46788311
0.46689644
0.46591217
0.46493280
0.46395576
0.46298191
0.46201117
0.46104371
0.46007946
0.45912003
0.45816304
0.45720927
0.45625864
0.45531290
0.45436880
0.45342868
0.45249189
0.45155907
0.45062949
0.44970233
0.44878007
0.44786024
0.44694286
0.44602964
0.44512113
0.44421517
0.44331168
0.44241307
0.44151695
0.44062561
0.43973606
0.43884982
0.43796913
0.43708949
0.43621541
0.43534316
0.43447416
0.43361001
0.43274849
0.43189099
0.43103605
0.43018596
0.42933778
0.42849436
0.42765354
0.42681681
0.42598270
0.42515342
0.42432603
0.42350347
0.42268355
0.42186766
0.42105521
0.42024615
0.41944111
0.41863882
0.41784056
0.41704506
0.41625430
0.41546630
0.41468165
0.41390111
0.41312335
0.41234964
0.41158004
0.41081257
0.41004982
0.40929050
0.40853395
0.40778218
0.40703319
0.40628824
0.40554615
0.40480818
0.40407367
0.40334198
0.40261499
0.40189153
0.40117149
0.40045498
0.39974133
0.39903237
0.39832633
0.39762435
0.39692587
0.39623034
0.39553887
0.39485152
0.39416769
0.39348737
0.39281057
0.39213676
0.39146702
0.39080135
0.39013874
0.38948015
0.38882574
0.38817429
0.38752639
0.38688257
0.38624236
0.38560566
0.38497258
0.38434307
0.38371764
0.38309529
0.38247701
0.38186232
0.38125128
0.38064432
0.38004041
0.37944063
0.37884447
0.37825190
0.37766301
0.37707814
0.37649648
0.37591885
0.37534490
0.37477459
0.37420790
0.37364485
0.37308640
0.37253114
0.37197952
0.37143151
0.37088720
0.37034703
0.36981096
0.36927807
0.36874889
0.36822335
0.36770148
0.36718422
0.36667022
0.36615941
0.36565275
0.36514979
0.36465142
0.36415630
0.36366444
0.36317717
0.36269318
0.36221333
0.36173678
0.36126475
0.36079565
0.36033070
0.35987027
0.35941280
0.35895902
0.35850984
0.35806397
0.35762224
0.35718391
0.35674930
0.35631923
0.35589258
0.35547003
0.35505088
0.35463551
0.35422429
0.35381685
0.35341356
0.35301334
0.35261798
0.35222571
0.35183760
0.35145325
0.35107308
0.35069605
0.35032381
0.34995475
0.34958984
0.34922873
0.34887177
0.34851803
0.34816904
0.34782361
0.34748168
0.34714421
0.34681029
0.34648054
0.34615462
0.34583227
0.34551436
0.34519974
0.34488957
0.34458326
0.34428055
0.34398224
0.34368783
0.34339704
0.34311015
0.34282738
0.34254853
0.34227358
0.34200251
0.34173561
0.34147260
0.34121329
0.34095811
0.34070707
0.34045973
0.34021634
0.33997708
0.33974176
0.33951037
0.33928312
0.33905961
0.33884006
0.33862465
0.33841319
0.33820570
0.33800234
0.33780295
0.33760733
0.33741570
0.33722821
0.33704486
0.33686533
0.33668995
0.33651854
0.33635112
0.33618770
0.33602827
0.33587298
0.33572157
0.33557429
0.33543102
0.33529178
0.33515666
0.33502544
0.33489836
0.33477531
0.33465628
0.33454129
0.33443034
0.33432352
0.33422065
0.33412193
0.33402725
0.33393678
0.33385021
0.33376769
0.33368932
0.33361501
0.33354477
0.33347860
0.33341651
0.33335861
0.33330473
0.33325493
0.33320923
0.33316761
0.33313013
0.33309674
0.33306745
0.33304225
0.33302118
0.33300424
0.33299140
0.33298267
0.33297807
0.33297760
0.33298125
0.33298902
0.33300093
0.33301696
0.33303716
0.33306146
0.33308993
0.33312252
0.33315926
0.33320015
0.33324524
0.33329442
0.33334779
0.33340524
0.33346696
0.33353286
0.33360281
0.33367701
0.33375525
0.33383782
0.33392458
0.33401538
0.33411053
0.33420972
0.33431320
0.33442069
0.33453258
0.33464848
0.33476880
0.33489314
0.33502179
0.33515444
0.33529157
0.33543265
0.33557798
0.33572781
0.33588147
0.33603963
0.33620192
0.33636829
0.33653924
0.33671412
0.33689342
0.33707664
0.33726430
0.33745622
0.33765241
0.33785253
0.33805746
0.33826611
0.33847924
0.33869664
0.33891833
0.33914413
0.33937400
0.33960858
0.33984724
0.34009000
0.34033707
0.34058888
0.34084457
0.34110432
0.34136864
0.34163750
0.34191016
0.34218720
0.34246856
0.34275399
0.34304402
0.34333867
0.34363711
0.34393992
0.34424705
0.34455853
0.34487410
0.34519429
0.34551854
0.34584718
0.34618046
0.34651784
0.34685956
0.34720536
0.34755551
0.34791006
0.34826900
0.34863233
0.34900001
0.34937177
0.34974828
0.35012883
0.35051378
0.35090314
0.35129654
0.35169472
0.35209693
0.35250356
0.35291465
0.35333012
0.35374962
0.35417358
0.35460193
0.35503512
0.35547238
0.35591404
0.35635977
0.35681032
0.35726451
0.35772357
0.35818705
0.35865502
0.35912745
0.35960430
0.36008477
0.36057015
0.36106000
0.36155432
0.36205313
0.36255547
0.36306323
0.36357501
0.36409127
0.36461159
0.36513684
0.36566609
0.36619988
0.36673813
0.36728088
0.36782768
0.36837944
0.36893578
0.36949559
0.37006038
0.37062975
0.37120310
0.37178147
0.37236442
0.37295081
0.37354279
0.37413824
0.37473879
0.37534389
0.37595240
0.37656660
0.37718425
0.37780698
0.37843367
0.37906552
0.37970134
0.38034178
0.38098612
0.38163625
0.38228979
0.38294846
0.38361053
0.38427837
0.38494959
0.38562661
0.38630701
0.38699258
0.38768152
0.38837570
0.38907448
0.38977786
0.39048579
0.39119773
0.39191367
0.39263544
0.39336121
0.39409099
0.39482601
0.39556497
0.39630854
0.39705675
0.39780966
0.39856643
0.39932927
0.40009466
0.40086534
