corrn_curve_cubic
-2.20114703
-2.19105217
-2.18096282
-2.17090670
-2.16085613
-2.15083942
-2.14084129
-2.13086317
-2.12090361
-2.11096331
-2.10105660
-2.09115546
-2.08128711
-2.07142364
-2.06159359
-2.05178266
-2.04199082
-2.03221806
-2.02247780
-2.01274314
-2.00304160
-1.99334497
-1.98369469
-1.97404930
-1.96442353
-1.95481597
-1.94522730
-1.93567140
-1.92612114
-1.91660287
-1.90710337
-1.89762264
-1.88816065
-1.87871740
-1.86930588
-1.85990002
-1.85052649
-1.84117159
-1.83182169
-1.82250333
-1.81320421
-1.80393648
-1.79467377
-1.78543026
-1.77621802
-1.76702422
-1.75784886
-1.74867857
-1.73955337
-1.73043322
-1.72133143
-1.71226124
-1.70319613
-1.69416188
-1.68514654
-1.67614944
-1.66716992
-1.65820928
-1.64926618
-1.64034191
-1.63146117
-1.62257253
-1.61371498
-1.60487551
-1.59604185
-1.58725137
-1.57846603
-1.56971152
-1.56096217
-1.55224293
-1.54354224
-1.53485947
-1.52619394
-1.51754693
-1.50891778
-1.50031844
-1.49172431
-1.48316118
-1.47461517
-1.46608689
-1.45756449
-1.44908349
-1.44060896
-1.43215148
-1.42371167
-1.41530185
-1.40692131
-1.39853432
-1.39017720
-1.38183762
-1.37351495
-1.36522199
-1.35693491
-1.34867684
-1.34043680
-1.33220751
-1.32400166
-1.31581920
-1.30764266
-1.29950087
-1.29137037
-1.28326314
-1.27516124
-1.26708851
-1.25903241
-1.25098819
-1.24297299
-1.23497436
-1.22699933
-1.21903494
-1.21108240
-1.20315808
-1.19525139
-1.18736697
-1.17949376
-1.17163756
-1.16380413
-1.15598824
-1.14819389
-1.14041702
-1.13265705
-1.12490252
-1.11718201
-1.10947263
-1.10178519
-1.09412079
-1.08646692
-1.07883602
-1.07122128
-1.06362382
-1.05604250
-1.04848346
-1.04093548
-1.03340472
-1.02589559
-1.01840861
-1.01093267
-1.00347882
-0.99604150
-0.98862620
-0.98122135
-0.97383902
-0.96648351
-0.95913405
-0.95180590
-0.94449468
-0.93719930
-0.92992082
-0.92265815
-0.91541718
-0.90819305
-0.90098465
-0.89379253
-0.88662198
-0.87947295
-0.87233957
-0.86521760
-0.85811180
-0.85102742
-0.84395916
-0.83691696
-0.82988088
-0.82286556
-0.81586681
-0.80888357
-0.80192669
-0.79497595
-0.78804584
-0.78113167
-0.77423395
-0.76736136
-0.76050004
-0.75365458
-0.74683515
-0.74002136
-0.73322846
-0.72645135
-0.71969455
-0.71295399
-0.70622414
-0.69951952
-0.69282559
-0.68615282
-0.67950016
-0.67285320
-0.66623672
-0.65962642
-0.65303121
-0.64646141
-0.63990222
-0.63335855
-0.62684015
-0.62032747
-0.61384434
-0.60736259
-0.60091077
-0.59446903
-0.58804796
-0.58163264
-0.57524658
-0.56886626
-0.56251080
-0.55616633
-0.54984614
-0.54353172
-0.53724197
-0.53095802
-0.52470335
-0.51845448
-0.51223011
-0.50601154
-0.49982205
-0.49364253
-0.48747393
-0.48132963
-0.47519529
-0.46908104
-0.46298590
-0.45689704
-0.45083183
-0.44478610
-0.43874621
-0.43273028
-0.42672922
-0.42073448
-0.41476764
-0.40881112
-0.40286943
-0.39694654
-0.39103887
-0.38515039
-0.37926778
-0.37340830
-0.36756395
-0.36173823
-0.35591883
-0.35012241
-0.34434059
-0.33857339
-0.33281687
-0.32708316
-0.32136399
-0.31565934
-0.30997350
-0.30429786
-0.29863671
-0.29299428
-0.28736630
-0.28175654
-0.27616161
-0.27058062
-0.26501442
-0.25946215
-0.25392882
-0.24840145
-0.24289631
-0.23740959
-0.23193297
-0.22647515
-0.22103112
-0.21560540
-0.21018975
-0.20479235
-0.19940869
-0.19403957
-0.18868455
-0.18334767
-0.17802083
-0.17271168
-0.16742098
-0.16213988
-0.15687718
-0.15162806
-0.14639330
-0.14117210
-0.13597272
-0.13078330
-0.12560776
-0.12044610
-0.11530221
-0.11017215
-0.10505203
-0.09994960
-0.09486868
-0.08979765
-0.08473998
-0.07969642
-0.07466658
-0.06965006
-0.06465863
-0.05966983
-0.05470187
-0.04974413
-0.04479964
-0.03987999
-0.03496640
-0.03006674
-0.02518025
-0.02031470
-0.01545894
-0.01061666
-0.00579484
-0.00098314
0.00381879
0.00859672
0.01336819
0.01812301
0.02286050
0.02758864
0.03230309
0.03700099
0.04168562
0.04635662
0.05101117
0.05565604
0.06028061
0.06489553
0.06950077
0.07408232
0.07865773
0.08321339
0.08775907
0.09228819
0.09680770
0.10131103
0.10579755
0.11027482
0.11473533
0.11918659
0.12361808
0.12803967
0.13244529
0.13683463
0.14121780
0.14558138
0.14993543
0.15427330
0.15859834
0.16290726
0.16720373
0.17149367
0.17576099
0.18002211
0.18426429
0.18849053
0.19271348
0.19691437
0.20110261
0.20528432
0.20944410
0.21359448
0.21773512
0.22185715
0.22596380
0.23006674
0.23414802
0.23821712
0.24227343
0.24632039
0.25035177
0.25436794
0.25837138
0.26236858
0.26634447
0.27031107
0.27426196
0.27820083
0.28213342
0.28604434
0.28994630
0.29383298
0.29770742
0.30156665
0.30541961
0.30925739
0.31308003
0.31689080
0.32068619
0.32447239
0.32824384
0.33200290
0.33575017
0.33948220
0.34320823
0.34691618
0.35061240
0.35429662
0.35796857
0.36162600
0.36527148
0.36890503
0.37252666
0.37613359
0.37972864
0.38331183
0.38688344
0.39044294
0.39398786
0.39751853
0.40103715
0.40454702
0.40804484
0.41152850
0.41500017
0.41846040
0.42190893
0.42534313
0.42876541
0.43217368
0.43557297
0.43895802
0.44233411
0.44569600
0.44904633
0.45238020
0.45570489
0.45902065
0.46232259
0.46561280
0.46888671
0.47215148
0.47540761
0.47864953
0.48187529
0.48509470
0.48830024
0.49149443
0.49467481
0.49784390
0.50100390
0.50414820
0.50728344
0.51040743
0.51351533
0.51661469
0.51970501
0.52277694
0.52584274
0.52889714
0.53193589
0.53496565
0.53797983
0.54098764
0.54398412
0.54696511
0.54993739
0.55289402
0.55584427
0.55877892
0.56170489
0.56461762
0.56752167
0.57041027
0.57329045
0.57615725
0.57901542
0.58185848
0.58469492
0.58751631
0.59032887
0.59312865
0.59591960
0.59869564
0.60145878
0.60421766
0.60695934
0.60969462
0.61241492
0.61512243
0.61782564
0.62051186
0.62319166
0.62585685
0.62850917
0.63115506
0.63378852
0.63640915
0.63902152
0.64162110
0.64421039
0.64678717
0.64935529
0.65191114
0.65445655
0.65699353
0.65951610
0.66202829
0.66453011
0.66702156
0.66950461
0.67197342
0.67443191
0.67687838
0.67931630
0.68174585
0.68416150
0.68656673
0.68896193
0.69134503
0.69371963
0.69608423
0.69843679
0.70077902
0.70310946
0.70543161
0.70774184
0.71004197
0.71233022
0.71461022
0.71687856
0.71913669
0.72138481
0.72362134
0.72585124
0.72806764
0.73027426
0.73247078
0.73465753
0.73683249
0.73899601
0.74115138
0.74329688
0.74543084
0.74755497
0.74967079
0.75177380
0.75386852
0.75595346
0.75802699
0.76009079
0.76214485
0.76418919
0.76622077
0.76824413
0.77025797
0.77226200
0.77425497
0.77623973
0.77821346
0.78017604
0.78213045
0.78407389
0.78600933
0.78793368
0.78984548
0.79175082
0.79364666
0.79553152
0.79740557
0.79927152
0.80112656
0.80297366
0.80480856
0.80663540
0.80845286
0.81025823
0.81205712
0.81384511
0.81562251
0.81739203
0.81915071
0.82089901
0.82264056
0.82437161
0.82609069
0.82780330
0.82950398
0.83119685
0.83288067
0.83455386
0.83621792
0.83787167
0.83951749
0.84115291
0.84278068
0.84439795
0.84600501
0.84760547
0.84919320
0.85077446
0.85234421
0.85390736
0.85545805
0.85700202
0.85853595
0.86005985
0.86157594
0.86308193
0.86458024
0.86606729
0.86754787
0.86901736
0.87047686
0.87192978
0.87337273
0.87480702
0.87623128
0.87764690
0.87905492
0.88045196
0.88184019
0.88322094
0.88459191
0.88595312
0.88730786
0.88865178
0.88998709
0.89131379
0.89263295
0.89394151
0.89524142
0.89653287
0.89781671
0.89908997
0.90035483
0.90161120
0.90285898
0.90409939
0.90533025
0.90655177
0.90776487
0.90896956
0.91016681
0.91135375
0.91253327
0.91370348
0.91486442
0.91601797
0.91716237
0.91829929
0.91942791
0.92054735
0.92165852
0.92276065
0.92385454
0.92494014
0.92601761
0.92708603
0.92814704
0.92919912
0.93024305
0.93127884
0.93230568
0.93332515
0.93433587
0.93533842
0.93633291
0.93731854
0.93829692
0.93926649
0.94022811
0.94118166
0.94212646
0.94306260
0.94399156
0.94491249
0.94582555
0.94673062
0.94762713
0.94851575
0.94939641
0.95026858
0.95113290
0.95199007
0.95283873
0.95367957
0.95451261
0.95533653
0.95615342
0.95696249
0.95776381
0.95855618
0.95934206
0.96011965
0.96089012
0.96165111
0.96240561
0.96315251
0.96389112
0.96462156
0.96534499
0.96606024
0.96676791
0.96746801
0.96816055
0.96884499
0.96952246
0.97019186
0.97085322
0.97150762
0.97215455
0.97279354
0.97342504
0.97404864
0.97466527
0.97527405
0.97587587
0.97646986
0.97705600
0.97763569
0.97820667
0.97877125
0.97932760
0.97987754
0.98041886
0.98095378
0.98148100
0.98200097
0.98251328
0.98301919
0.98351670
0.98400777
0.98449086
0.98496683
0.98543636
0.98589764
0.98635250
0.98679953
0.98723946
0.98767297
0.98809837
0.98851740
0.98892868
0.98933293
0.98973077
0.99012068
0.99050387
0.99088007
0.99124899
0.99161094
0.99196623
0.99231428
0.99265516
0.99298909
0.99331666
0.99363657
0.99394986
0.99425601
0.99455583
0.99484807
0.99513371
0.99541256
0.99568438
0.99594985
0.99620790
0.99645940
0.99670415
0.99694196
0.99717306
0.99739781
0.99761531
0.99782632
0.99803047
0.99822796
0.99841883
0.99860304
0.99878064
0.99895147
0.99911599
0.99927363
0.99942460
0.99956912
0.99970698
0.99983841
0.99996321
1.00008141
1.00019320
1.00029843
1.00039726
1.00048955
1.00057539
1.00065472
1.00072770
1.00079421
1.00085432
1.00090804
1.00095531
1.00099630
1.00103091
1.00105918
1.00108113
1.00109676
1.00110608
1.00110912
1.00110587
1.00109639
1.00108064
1.00105866
1.00103044
1.00099603
1.00095541
1.00090868
1.00085569
1.00079659
1.00073133
1.00065993
1.00058247
1.00049889
1.00040913
1.00031336
1.00021159
1.00010368
0.99998979
0.99986996
0.99974401
0.99961192
0.99947404
0.99933018
0.99918033
0.99902452
0.99886288
0.99869516
0.99852180
0.99834222
0.99815686
0.99796578
0.99776865
0.99756563
0.99735711
0.99714254
0.99692233
0.99669612
0.99646446
0.99622663
0.99598340
0.99573418
0.99547919
0.99521866
0.99495239
0.99468062
0.99440267
0.99411972
0.99383059
0.99353628
0.99323627
0.99293013
0.99261911
0.99230191
0.99197937
0.99165123
0.99131773
0.99097865
0.99063374
0.99028381
0.98992774
0.98956676
0.98920023
0.98882786
0.98845062
0.98806789
0.98767903
0.98728536
0.98688656
0.98648164
0.98607194
0.98565685
0.98523565
0.98481011
0.98437879
0.98394250
0.98350007
0.98305306
0.98260105
0.98214334
0.98167996
0.98121201
0.98073877
0.98026029
0.97977690
0.97928744
0.97879355
0.97829443
0.97779008
0.97728052
0.97676614
0.97624619
0.97572105
0.97519118
0.97465616
0.97411640
0.97357110
0.97302109
0.97246601
0.97190579
0.97134096
0.97077063
0.97019566
0.96961564
0.96903063
0.96844103
0.96784542
0.96724580
0.96664118
0.96603209
0.96541752
0.96479851
0.96417449
0.96354559
0.96291176
0.96227301
0.96162930
0.96098129
0.96032841
0.95967059
0.95900797
0.95834044
0.95766863
0.95699263
0.95631119
0.95562494
0.95493389
0.95423865
0.95353870
0.95283333
0.95212494
0.95141068
0.95069230
0.94996860
0.94924080
0.94850892
0.94777231
0.94703046
0.94628458
0.94553463
0.94477947
0.94401961
0.94325520
0.94248742
0.94171440
0.94093686
0.94015535
0.93936861
0.93857799
0.93778350
0.93698382
0.93617900
0.93537159
0.93455845
0.93374138
0.93292061
0.93209467
0.93126562
0.93043080
0.92959154
0.92874929
0.92790184
0.92705145
0.92619529
0.92533615
0.92447125
0.92360265
0.92273120
0.92185401
0.92097317
0.92008801
0.91919932
0.91830558
0.91740833
0.91650681
0.91560181
0.91469257
0.91377754
0.91286055
0.91193786
0.91101255
0.91008146
0.90914850
0.90821057
0.90726777
0.90632234
0.90537287
0.90441756
0.90346059
0.90249795
0.90153196
0.90056271
0.89958856
0.89861118
0.89762976
0.89664513
0.89565479
0.89466212
0.89366544
0.89266391
0.89165925
0.89065139
0.88963965
0.88862309
0.88760337
0.88657979
0.88555309
0.88452248
0.88348628
0.88244787
0.88140567
0.88036041
0.87931129
0.87825832
0.87719979
0.87613915
0.87507551
0.87400733
0.87293609
0.87186115
0.87078244
0.86970090
0.86861466
0.86752553
0.86643087
0.86533436
0.86423499
0.86313106
0.86202430
0.86091299
0.85979887
0.85868205
0.85756071
0.85643563
0.85530789
0.85417652
0.85304165
0.85190307
0.85076188
0.84961613
0.84846968
0.84731779
0.84616235
0.84500336
0.84384185
0.84267572
0.84150718
0.84033514
0.83916052
0.83798152
0.83680098
0.83561607
0.83442760
0.83323570
0.83204047
0.83084276
0.82964267
0.82843815
0.82723025
0.82601907
0.82480641
0.82358945
0.82236820
0.82114445
0.81991960
0.81868932
0.81745679
0.81621990
0.81498282
0.81374044
0.81249468
0.81124792
0.80999674
0.80874135
0.80748588
0.80622502
0.80496105
0.80369598
0.80242662
0.80115409
0.79987960
0.79860074
0.79732096
0.79603693
0.79474865
0.79346050
0.79216712
0.79087288
0.78957331
0.78827292
0.78696822
0.78566285
0.78435215
0.78304059
0.78172383
0.78040622
0.77908457
0.77776211
0.77643436
0.77510594
0.77377352
0.77243917
0.77110072
0.76976049
0.76841733
0.76707242
0.76572461
0.76437272
0.76301912
0.76166382
0.76030328
0.75894214
0.75757707
0.75621035
0.75484187
0.75346830
0.75209419
0.75071741
0.74933650
0.74795535
0.74657009
0.74518328
0.74379263
0.74240032
0.74100528
0.73960873
0.73820703
0.73680506
0.73540040
0.73399306
0.73258180
0.73117035
0.72975611
0.72833935
0.72691995
0.72549668
0.72407191
0.72264589
0.72121716
0.71978596
0.71835205
0.71691570
0.71547792
0.71403518
0.71259230
0.71114689
0.70969895
0.70824977
0.70679681
0.70534262
0.70388595
0.70242681
0.70096519
0.69950240
0.69803716
0.69656819
0.69509924
0.69362671
0.69215177
0.69067559
0.68919585
0.68771503
0.68623170
0.68474730
0.68325938
0.68177029
0.68027769
0.67878393
0.67728917
0.67579210
0.67429274
0.67278976
0.67128596
0.66977975
0.66827247
0.66676175
0.66525144
0.66373756
0.66222147
0.66070302
0.65918249
0.65765977
0.65613740
0.65461165
0.65308373
0.65155351
0.65002384
0.64848946
0.64695417
0.64541688
0.64387870
0.64233842
0.64079468
0.63925157
0.63770502
0.63615504
0.63460450
0.63305437
0.63150097
0.62994416
0.62838807
0.62682860
0.62526973
0.62370625
0.62214078
0.62057735
0.61900793
0.61744056
0.61586862
0.61429458
0.61272140
0.61114504
0.60956801
0.60798769
0.60640827
0.60482429
0.60324110
0.60165464
0.60006772
0.59847754
0.59688833
0.59529447
0.59370160
0.59210551
0.59050888
0.58891059
0.58731051
0.58570993
0.58410630
0.58250218
0.58089503
0.57928884
0.57767963
0.57606855
0.57445718
0.57284281
0.57122802
0.56961298
0.56799353
0.56637513
0.56475507
0.56313191
0.56150998
0.55988497
0.55825963
0.55663137
0.55500294
0.55337291
0.55173982
0.55010791
0.54847457
0.54683951
0.54520304
0.54356356
0.54192530
0.54028419
0.53864288
0.53700004
0.53535438
0.53370854
0.53206267
0.53041532
0.52876650
0.52711621
0.52546314
0.52380995
0.52215664
0.52050072
0.51884456
0.51718861
0.51552978
0.51386955
0.51220927
0.51054776
0.50888473
0.50722048
0.50555488
0.50388928
0.50222099
0.50055272
0.49888313
0.49721238
0.49554167
0.49386818
0.49219489
0.49052032
0.48884449
0.48716755
0.48549055
0.48381112
0.48213164
0.48045110
0.47876933
0.47708636
0.47540218
0.47371968
0.47203463
0.47034842
0.46866088
0.46697233
0.46528415
0.46359619
0.46190558
0.46021400
0.45852115
0.45682719
0.45513517
0.45344069
0.45174345
0.45004666
0.44834881
0.44665294
0.44495450
0.44325349
0.44155450
0.43985296
0.43815193
0.43644837
0.43474671
0.43304115
0.43133614
0.42963306
0.42792611
0.42621804
0.42451225
0.42280382
0.42109600
0.41938587
0.41767467
0.41596563
0.41425431
0.41254349
0.41083024
0.40911611
0.40740265
0.40568834
0.40397472
0.40225716
0.40054341
0.39882574
0.39710880
0.39539088
0.39367388
0.39195297
0.39023578
0.38851486
0.38679472
0.38507366
0.38335340
0.38162944
0.37990926
0.37818694
0.37646219
0.37473984
0.37301523
0.37129163
0.36956719
0.36784050
0.36611627
0.36438824
0.36266268
0.36093647
0.35920805
0.35748198
0.35575543
0.35402670
0.35229736
0.35056883
0.34883986
0.34711031
0.34538002
0.34365088
0.34192103
0.34018921
0.33845826
0.33672834
0.33499631
0.33326392
0.33153244
0.32980044
0.32806795
0.32633654
0.32460307
0.32286913
0.32113629
0.31940299
0.31766925
0.31593663
0.31420358
0.31246837
0.31073289
0.30899858
0.30726529
0.30553017
0.30379625
0.30206179
0.30032696
0.29859191
0.29685635
0.29512203
0.29338593
0.29165093
0.28991560
0.28818010
0.28644573
0.28470946
0.28297448
0.28123921
0.27950367
0.27776785
0.27603176
0.27429685
0.27256025
0.27082500
0.26908952
0.26735682
0.26562089
0.26388459
0.26214984
0.26041472
0.25867958
0.25694410
0.25520860
0.25347596
0.25174156
0.25000718
0.24827250
0.24653768
0.24480432
0.24307084
0.24133725
0.23960197
0.23786818
0.23613747
0.23440351
0.23267106
0.23093696
0.22920581
0.22747319
0.22574210
0.22401083
0.22227968
0.22054692
0.21881717
0.21708598
0.21535622
0.21362647
0.21189689
0.21016559
0.20843750
0.20670802
0.20498144
0.20325206
0.20152258
0.19979634
0.19806859
0.19634410
0.19461653
0.19288905
0.19116469
0.18943759
0.18771347
0.18598805
0.18426578
0.18254063
0.18081881
0.17909397
0.17737231
0.17564940
0.17392968
0.17220697
0.17048779
0.16876865
0.16704654
0.16532942
0.16360950
0.16189124
0.16017480
0.15845543
0.15673949
0.15502223
0.15330840
0.15159326
0.14987840
0.14816383
0.14645257
0.14473702
0.14302652
0.14131461
0.13960318
0.13789208
0.13618274
0.13447533
0.13276527
0.13105716
0.12935083
0.12764488
0.12593631
0.12423114
0.12252794
0.12082356
0.11911818
0.11741653
0.11571499
0.11401388
0.11231479
0.11061457
0.10891323
0.10721550
0.10551808
0.10382130
0.10212500
0.10043061
0.09873529
0.09704206
0.09534918
0.09365540
0.09196356
0.09027242
0.08858322
0.08689473
0.08520664
0.08351911
0.08183215
0.08014592
0.07846168
0.07677646
0.07509341
0.07341096
0.07172912
0.07004946
0.06836886
0.06669046
0.06501269
0.06333542
0.06165895
0.05998470
0.05831096
0.05663806
0.05496427
0.05329257
0.05162173
0.04995298
0.04828354
0.04661778
0.04495118
0.04328546
0.04162032
0.03995593
0.03829244
0.03663266
0.03497209
0.03331229
0.03165326
0.02999503
0.02834067
0.02668402
0.02502972
0.02337624
0.02172496
0.02007312
0.01842365
0.01677487
0.01512708
0.01348015
0.01183547
0.01019026
0.00854578
0.00690525
0.00526422
0.00362393
0.00198608
0.00034776
-0.00128981
-0.00292339
-0.00455895
-0.00619067
-0.00782298
-0.00945434
-0.01108169
-0.01271113
-0.01433671
-0.01596268
-0.01758615
-0.01921016
-0.02083164
-0.02245228
-0.02407024
-0.02569022
-0.02730630
-0.02892271
-0.03053521
-0.03214954
-0.03375995
-0.03537218
-0.03698047
-0.03858906
-0.04019370
-0.04179877
-0.04340275
-0.04500563
-0.04660727
-0.04820644
-0.04980314
-0.05140143
-0.05299723
-0.05459056
-0.05618409
-0.05777497
-0.05936470
-0.06095327
-0.06254082
-0.06412556
-0.06571210
-0.06729312
-0.06887429
