corrn_curve_linearv3
1.82257250
1.82147517
1.82037633
1.81927900
1.81818017
1.81708292
1.81598559
1.81488834
1.81379101
1.81269368
1.81159794
1.81050069
1.80940495
1.80830762
1.80721188
1.80611614
1.80502040
1.80392466
1.80283042
1.80173468
1.80064053
1.79954479
1.79845215
1.79735792
1.79626377
1.79516954
1.79407531
1.79298267
1.79188852
1.79079588
1.78970324
1.78861059
1.78751795
1.78642531
1.78533418
1.78424154
1.78315049
1.78205944
1.78096680
1.77987566
1.77878461
1.77769507
1.77660394
1.77551289
1.77442334
1.77333380
1.77224426
1.77115313
1.77006518
1.76897563
1.76788609
1.76679814
1.76570860
1.76462057
1.76353261
1.76244466
1.76135663
1.76026868
1.75918064
1.75809269
1.75700784
1.75591981
1.75483336
1.75374692
1.75265897
1.75157411
1.75048767
1.74940282
1.74831637
1.74723144
1.74614659
1.74506173
1.74397680
1.74289195
1.74180709
1.74072375
1.73963882
1.73855555
1.73747221
1.73638886
1.73530401
1.73422218
1.73313891
1.73205557
1.73097223
1.72989047
1.72881023
1.72772688
1.72664513
1.72556337
1.72448154
1.72340130
1.72231954
1.72123930
1.72015913
1.71907809
1.71799785
1.71691840
1.71583744
1.71475878
1.71367933
1.71260068
1.71152043
1.71044178
1.70936304
1.70828359
1.70720573
1.70612779
1.70505073
1.70397279
1.70289413
1.70181698
1.70073992
1.69966357
1.69858642
1.69750928
1.69643293
1.69535665
1.69428102
1.69320546
1.69212991
1.69105276
1.68997800
1.68890244
1.68782760
1.68675364
1.68567879
1.68460483
1.68353078
1.68245681
1.68138277
1.68030952
1.67923547
1.67816150
1.67708825
1.67601579
1.67494254
1.67387009
1.67279763
1.67172597
1.67065343
1.66958177
1.66851161
1.66743995
1.66636900
1.66529814
1.66422719
1.66315632
1.66208537
1.66101522
1.65994515
1.65887500
1.65780484
1.65673549
1.65566692
1.65459828
1.65352892
1.65245956
1.65139100
1.65032244
1.64925538
1.64818682
1.64711897
1.64605120
1.64498336
1.64391710
1.64284933
1.64178227
1.64071522
1.63964825
1.63858270
1.63751644
1.63645019
1.63538552
1.63431926
1.63325379
1.63218833
1.63112358
1.63005891
1.62899345
1.62792949
1.62686474
1.62580087
1.62473771
1.62367296
1.62261059
1.62154672
1.62048277
1.61942040
1.61835724
1.61729408
1.61623251
1.61516935
1.61410850
1.61304534
1.61198456
1.61092291
1.60986213
1.60879977
1.60773971
1.60667806
1.60561800
1.60455722
1.60349796
1.60243710
1.60137784
1.60031698
1.59925851
1.59819845
1.59713998
1.59607992
1.59502224
1.59396369
1.59290442
1.59184675
1.59078820
1.58973052
1.58867356
1.58761509
1.58655813
1.58550196
1.58444420
1.58338804
1.58233187
1.58127419
1.58021882
1.57916265
1.57810649
1.57705104
1.57599566
1.57494109
1.57388492
1.57283026
1.57177568
1.57072182
1.56966645
1.56861259
1.56755873
1.56650486
1.56545029
1.56439722
1.56334415
1.56229108
1.56123881
1.56018574
1.55913267
1.55808040
1.55702813
1.55597657
1.55492509
1.55387353
1.55282206
1.55177050
1.55071981
1.54966754
1.54861678
1.54756681
1.54651605
1.54546616
1.54441619
1.54336702
1.54231705
1.54126787
1.54021862
1.53916945
1.53812027
1.53707189
1.53602272
1.53497426
1.53392668
1.53287822
1.53183063
1.53078297
1.52973538
1.52868772
1.52764165
1.52659478
1.52554791
1.52450104
1.52345496
1.52240889
1.52136202
1.52031594
1.51927146
1.51822618
1.51718082
1.51613554
1.51509026
1.51404490
1.51300192
1.51195664
1.51091287
1.50986839
1.50882382
1.50778164
1.50673787
1.50569418
1.50465041
1.50360823
1.50256525
1.50152228
1.50048081
1.49943863
1.49839566
1.49735498
1.49631280
1.49527134
1.49423075
1.49318928
1.49214789
1.49110722
1.49006655
1.48902596
1.48798608
1.48694541
1.48590633
1.48486645
1.48382578
1.48278750
1.48174762
1.48070925
1.47967017
1.47863188
1.47759280
1.47655443
1.47551694
1.47447858
1.47344108
1.47240272
1.47136594
1.47032845
1.46929167
1.46825569
1.46721811
1.46618213
1.46514535
1.46410937
1.46307339
1.46203820
1.46100293
1.45996616
1.45893176
1.45789578
1.45686131
1.45582763
1.45479165
1.45375797
1.45272429
1.45168910
1.45065622
1.44962254
1.44858815
1.44755526
1.44652309
1.44548870
1.44445661
1.44342444
1.44239235
1.44135947
1.44032738
1.43929601
1.43826471
1.43723183
1.43620125
1.43516988
1.43413938
1.43310880
1.43207663
1.43104692
1.43001635
1.42898656
1.42795678
1.42692779
1.42589721
1.42486742
1.42383843
1.42280936
1.42178117
1.42075218
1.41972390
1.41869571
1.41766743
1.41664003
1.41561096
1.41458356
1.41355608
1.41252860
1.41150120
1.41047452
1.40944783
1.40842115
1.40739446
1.40636857
1.40534268
1.40431679
1.40329082
1.40226493
1.40123983
1.40021545
1.39919115
1.39816598
1.39714088
1.39611650
1.39509220
1.39406782
1.39304344
1.39201985
1.39099634
1.38997355
1.38894997
1.38792717
1.38690359
1.38588080
1.38485800
1.38383672
1.38281473
1.38179193
1.38076986
1.37974786
1.37872737
1.37770617
1.37668410
1.37566289
1.37464320
1.37362192
1.37260143
1.37158094
1.37056125
1.36954156
1.36852115
1.36750217
1.36648248
1.36546279
1.36444469
1.36342571
1.36240602
1.36138871
1.36036973
1.35935083
1.35833345
1.35731534
1.35629875
1.35528057
1.35426246
1.35324587
1.35222848
1.35121268
1.35019530
1.34917950
1.34816290
1.34714710
1.34613051
1.34511551
1.34409963
1.34308463
1.34206883
1.34105454
1.34003874
1.33902445
1.33800945
1.33699516
1.33598015
1.33496666
1.33395396
1.33293888
1.33192618
1.33091189
1.32989919
1.32888728
1.32787299
1.32686109
1.32584760
1.32483561
1.32382450
1.32281180
1.32179982
1.32078871
1.31977672
1.31876561
1.31775442
1.31674403
1.31573292
1.31472252
1.31371213
1.31270094
1.31169134
1.31068174
1.30967214
1.30866254
1.30765214
1.30664334
1.30563453
1.30462644
1.30361763
1.30260803
1.30159994
1.30059193
1.29958384
1.29857654
1.29756853
1.29656044
1.29555315
1.29454593
1.29353943
1.29253213
1.29152563
1.29051913
1.28951342
1.28850692
1.28750114
1.28649543
1.28548972
1.28448473
1.28347823
1.28247332
1.28146833
1.28046342
1.27945842
1.27845431
1.27745090
1.27644671
1.27544251
1.27443911
1.27343571
1.27243159
1.27142890
1.27042550
1.26942210
1.26841949
1.26741688
1.26641428
1.26541167
1.26441057
1.26340876
1.26240687
1.26140505
1.26040395
1.25940214
1.25840104
1.25740074
1.25639972
1.25539942
1.25439832
1.25339802
1.25239931
1.25139900
1.25039870
1.24939919
1.24840040
1.24740089
1.24640218
1.24540267
1.24440467
1.24340596
1.24240724
1.24141004
1.24041124
1.23941333
1.23841612
1.23741812
1.23642100
1.23542451
1.23442659
1.23342939
1.23243377
1.23143657
1.23044095
1.22944454
1.22844806
1.22745244
1.22645683
1.22546193
1.22446631
1.22347149
1.22247580
1.22148098
1.22048687
1.21949126
1.21849795
1.21750305
1.21650974
1.21551492
1.21452232
1.21352830
1.21253499
1.21154239
1.21054908
1.20955657
1.20856326
1.20757154
1.20657823
1.20558643
1.20459542
1.20360291
1.20261119
1.20161939
1.20062846
1.19963745
1.19864565
1.19765544
1.19666531
1.19567431
1.19468409
1.19369468
1.19270367
1.19171426
1.19072484
1.18973542
1.18874521
1.18775651
1.18676789
1.18577919
1.18478977
1.18380194
1.18281404
1.18182613
1.18083830
1.17984960
1.17886178
1.17787466
1.17688755
1.17590044
1.17491253
1.17392622
1.17293911
1.17195279
1.17096727
1.16998095
1.16899535
1.16800903
1.16702271
1.16603719
1.16505167
1.16406686
1.16308205
1.16209732
1.16111252
1.16012850
1.15914378
1.15815976
1.15717575
1.15619174
1.15520852
1.15422459
1.15324129
1.15225807
1.15127485
1.15029243
1.14930921
1.14832679
1.14734429
1.14636186
1.14538023
1.14439932
1.14341761
1.14243598
1.14145427
1.14047265
1.13949173
1.13851082
1.13752998
1.13654986
1.13556975
1.13458883
1.13360871
1.13262859
1.13164848
1.13066995
1.12969054
1.12871122
1.12773189
1.12675408
1.12577475
1.12479615
1.12381682
1.12283980
1.12186127
1.12088266
1.11990493
1.11892791
1.11795009
1.11697307
1.11599605
1.11501903
1.11404201
1.11306579
1.11208877
1.11111254
1.11013711
1.10916089
1.10818466
1.10720915
1.10623372
1.10525901
1.10428358
1.10330886
1.10233343
1.10135872
1.10038479
1.09940936
1.09843624
1.09746152
1.09648840
1.09551368
1.09454135
1.09356743
1.09259430
1.09162118
1.09064885
1.08967492
1.08870331
1.08773018
1.08675865
1.08578703
1.08481390
1.08384308
1.08287075
1.08189993
1.08092911
1.07995678
1.07898675
1.07801513
1.07704511
1.07607508
1.07510354
1.07413423
1.07316420
1.07219418
1.07122494
1.07025571
1.06928569
1.06831645
1.06734794
1.06637950
1.06540947
1.06444175
1.06347323
1.06250559
1.06153628
1.06056935
1.05960171
1.05863398
1.05766706
1.05669854
1.05573241
1.05476548
1.05379855
1.05283242
1.05186628
1.05089856
1.04993322
1.04896701
1.04800167
1.04703633
1.04607092
1.04510558
1.04414016
1.04317561
1.04220940
1.04124486
1.04028103
1.03931641
1.03835258
1.03738803
1.03642421
1.03546117
1.03449734
1.03353423
1.03257048
1.03160737
1.03064433
1.02968209
1.02871906
1.02775674
1.02679450
1.02583226
1.02487153
1.02390921
1.02294777
1.02198624
1.02102480
1.02006328
1.01910255
1.01814110
1.01718037
1.01622115
1.01526050
1.01430049
1.01333984
1.01237990
1.01141989
1.01046154
1.00950161
1.00854247
1.00758325
1.00662411
1.00566568
1.00470734
1.00374812
1.00278977
1.00183214
1.00087380
0.99991616
0.99895933
0.99800170
0.99704327
0.99608644
0.99512960
0.99417277
0.99321593
0.99225989
0.99130305
0.99034781
0.98939097
0.98843485
0.98747960
0.98652356
0.98556744
0.98461299
0.98365766
0.98270313
0.98174789
0.98079415
0.97983890
0.97888517
0.97793064
0.97697610
0.97602237
0.97506863
0.97411569
0.97316116
0.97220901
0.97125527
0.97030313
0.96935090
0.96839716
0.96744581
0.96649279
0.96554064
0.96458849
0.96363706
0.96268563
0.96173348
0.96078285
0.95983062
0.95888006
0.95792942
0.95697799
0.95602815
0.95507830
0.95412687
0.95317703
0.95222798
0.95127734
0.95032822
0.94937917
0.94842853
0.94748028
0.94653115
0.94558290
0.94463297
0.94368472
0.94273718
0.94178885
0.94083980
0.93989226
0.93894472
0.93799726
0.93705052
0.93610219
0.93515544
0.93420870
0.93326196
0.93231521
0.93136918
0.93042244
0.92947570
0.92852975
0.92758380
0.92663856
0.92569262
0.92474738
0.92380223
0.92285699
0.92191255
0.92096740
0.92002296
0.91907852
0.91813416
0.91719052
0.91624528
0.91530164
0.91435799
0.91341514
0.91247150
0.91152865
0.91058572
0.90964287
0.90870002
0.90775717
0.90681424
0.90587219
0.90493013
0.90398800
0.90304594
0.90210381
0.90116246
0.90022200
0.89928066
0.89833932
0.89739798
0.89645743
0.89551697
0.89457563
0.89363659
0.89269605
0.89175629
0.89081575
0.88987600
0.88893704
0.88799801
0.88705826
0.88611930
0.88518106
0.88424210
0.88330307
0.88236411
0.88142666
0.88048842
0.87955026
0.87861282
0.87767457
0.87673713
0.87580048
0.87486303
0.87392487
0.87298893
0.87205157
0.87111483
0.87017898
0.86924233
0.86830718
0.86737053
0.86643388
0.86549882
0.86456288
0.86362853
0.86269268
0.86175833
0.86082247
0.85988733
0.85895378
0.85801872
0.85708437
0.85615002
0.85521647
0.85428212
0.85334857
0.85241502
0.85148226
0.85054950
0.84961515
0.84868311
0.84774956
0.84681759
0.84588404
0.84495279
0.84402075
0.84308799
0.84215674
0.84122558
0.84029274
0.83936229
0.83843032
0.83749907
0.83656862
0.83563737
0.83470692
0.83377647
0.83284681
0.83191556
0.83098590
0.83005624
0.82912579
0.82819613
0.82726719
0.82633832
0.82540866
0.82447972
0.82355085
0.82262271
0.82169456
0.82076490
0.81983675
0.81890868
0.81798132
0.81705397
0.81612662
0.81519775
0.81427040
0.81334376
0.81241648
0.81148984
0.81056328
0.80963673
0.80871096
0.80778440
0.80685856
0.80593120
0.80500544
0.80408039
0.80315462
0.80222957
0.80130381
0.80037876
0.79945450
0.79852953
0.79760448
0.79668023
0.79575597
0.79483180
0.79390754
0.79298408
0.79205982
0.79113787
0.79021441
0.78929095
0.78836749
0.78744483
0.78652129
0.78559862
0.78467595
0.78375400
0.78283134
0.78191018
0.78098831
0.78006636
0.77914441
0.77822254
0.77730138
0.77638102
0.77545986
0.77453871
0.77361763
0.77269799
0.77177762
0.77085655
0.76993611
0.76901733
0.76809697
0.76717741
0.76625704
0.76533899
0.76441942
0.76349977
0.76258180
0.76166295
0.76074338
0.75982612
0.75890727
0.75798849
0.75707123
0.75615317
0.75523512
0.75431793
0.75339988
0.75248341
0.75156615
0.75064809
0.74973234
0.74881508
0.74789940
0.74698214
0.74606647
0.74514992
0.74423504
0.74331857
0.74240362
0.74148715
0.74057219
0.73965652
0.73874235
0.73782660
0.73691244
0.73599756
0.73508340
0.73416844
0.73325428
0.73234011
0.73142674
0.73051338
0.72959921
0.72868584
0.72777327
0.72685911
0.72594645
0.72503309
0.72412051
0.72320865
0.72229528
0.72138343
0.72047165
0.71955899
0.71864801
0.71773615
0.71682509
0.71591331
0.71500224
0.71409118
0.71318091
0.71226905
0.71135878
0.71044851
0.70953824
0.70862718
0.70771770
0.70680815
0.70589867
0.70498920
0.70407893
0.70316938
0.70226070
0.70135194
0.70044326
0.69953450
0.69862582
0.69771785
0.69680838
0.69590041
0.69499245
0.69408448
0.69317731
0.69226935
0.69136218
0.69045501
0.68954784
0.68864067
0.68773429
0.68682792
0.68592075
0.68501508
0.68410871
0.68320233
0.68229667
0.68139030
0.68048472
0.67957906
0.67867419
0.67776861
0.67686374
0.67595816
0.67505330
0.67414923
0.67324515
0.67234108
0.67143622
0.67053223
0.66962815
0.66872480
0.66782073
0.66691825
0.66601497
0.66511169
0.66420834
0.66330506
0.66240178
0.66150002
0.66059754
0.65969505
0.65879249
0.65789152
0.65698904
0.65608727
0.65518558
0.65428461
0.65338364
0.65248187
0.65158170
0.65068072
0.64977896
0.64887807
0.64797860
0.64707843
0.64617745
0.64527807
0.64437789
0.64347923
0.64257905
0.64167887
0.64078100
0.63988082
0.63898295
0.63808357
0.63718410
0.63628623
0.63538764
0.63448977
0.63359110
0.63269402
0.63179544
0.63089836
0.63000048
0.62910341
0.62820553
0.62730925
0.62641138
0.62551509
0.62461802
0.62372165
0.62282537
0.62192909
0.62103352
0.62013723
0.61924166
0.61834538
0.61745061
0.61655512
0.61565955
0.61476478
0.61386929
0.61297451
0.61208053
0.61118505
0.61029107
0.60939709
0.60850231
0.60760913
0.60671515
0.60582189
0.60492791
0.60403472
0.60314154
0.60224756
0.60135509
0.60046270
0.59957023
0.59867784
0.59778466
0.59689298
0.59600059
0.59510892
0.59421724
0.59332485
0.59243318
0.59154230
0.59065142
0.58976054
0.58886966
0.58797806
0.58708718
0.58619702
0.58530622
0.58441605
0.58352676
0.58263668
0.58174659
0.58085722
0.57996793
0.57907856
0.57818927
0.57729998
0.57641140
0.57552211
0.57463354
0.57374496
0.57285647
0.57196869
0.57108011
0.57019233
0.56930455
0.56841677
0.56752907
0.56664200
0.56575430
0.56486723
0.56398025
0.56309326
0.56220627
0.56131929
0.56043381
0.55954762
0.55866143
0.55777516
0.55688897
0.55600357
0.55511889
0.55423341
0.55334801
0.55246254
0.55157706
0.55069317
0.54980857
0.54892310
0.54803841
0.54715373
0.54627064
0.54538675
0.54450207
0.54361898
0.54273509
0.54185200
0.54096811
0.54008574
0.53920185
0.53831876
0.53743717
0.53655408
0.53567091
0.53478941
0.53390703
0.53302545
0.53214315
0.53126077
0.53037998
0.52949848
0.52861769
0.52773611
0.52685453
0.52597374
0.52509295
0.52421296
0.52333137
0.52245218
0.52157139
0.52069139
0.51981132
0.51893212
0.51805134
0.51717285
0.51629286
0.51541366
0.51453438
0.51365590
0.51277591
0.51189822
0.51101981
0.51014053
0.50926285
0.50838436
0.50750675
0.50662906
0.50575058
0.50487369
0.50399520
0.50311831
0.50224141
0.50136373
0.50048755
0.49961145
0.49873455
0.49785766
0.49698148
0.49610538
0.49522928
0.49435310
0.49347780
0.49260241
0.49172631
0.49085093
0.48997634
0.48910095
0.48822565
0.48735106
0.48647647
0.48560188
0.48472809
0.48385350
0.48297891
0.48210511
0.48123132
0.48035752
0.47948452
0.47861152
0.47773765
0.47686385
0.47599085
0.47511857
0.47424556
0.47337336
0.47250107
0.47162879
0.47075658
0.46988430
0.46901281
0.46814060
0.46726911
0.46639762
0.46552621
0.46465551
0.46378402
0.46291333
0.46204263
0.46117193
0.46030124
0.45943054
0.45856056
0.45768987
0.45681997
0.45595006
0.45508167
0.45421177
0.45334179
0.45247268
0.45160350
0.45073439
0.44986521
0.44899610
0.44812850
0.44726011
0.44639180
0.44552341
0.44465502
0.44378742
0.44291982
0.44205222
0.44118383
0.44031624
0.43945023
0.43858263
0.43771583
0.43684823
0.43598215
0.43511534
0.43424934
0.43338325
0.43251724
0.43165044
0.43078515
0.42991914
0.42905385
0.42818856
0.42732334
0.42645726
0.42559276
0.42472755
0.42386376
0.42299855
0.42213326
0.42126956
0.42040506
0.41954215
0.41867765
0.41781315
0.41695017
0.41608575
0.41522276
0.41435906
0.41349686
0.41263316
0.41177105
0.41090734
0.41004515
0.40918224
0.40832084
0.40745786
0.40659654
0.40573514
0.40487215
0.40401155
0.40314943
0.40228803
0.40142743
0.40056524
0.39970463
0.39884323
0.39798343
0.39712282
0.39626222
0.39540161
0.39454252
0.39368112
0.39282211
0.39196222
0.39110241
0.39024260
0.38938351
0.38852521
0.38766540
0.38680638
0.38594808
0.38508978
0.38422997
0.38337167
0.38251417
0.38165587
0.38079686
0.37993951
0.37908201
0.37822450
0.37736779
0.37651029
0.37565199
0.37479528
0.37393849
0.37308178
0.37222507
0.37136907
0.37051236
0.36965645
0.36880045
0.36794374
0.36708775
0.36623183
0.36537663
0.36452151
0.36366631
0.36281111
0.36195591
0.36110079
0.36024638
0.35939118
0.35853678
0.35768237
0.35682797
0.35597435
0.35511995
0.35426634
0.35341273
0.35255904
0.35170543
0.35085261
0.34999971
0.34914690
0.34829329
0.34744039
0.34658757
0.34573547
0.34488266
0.34403135
0.34317925
0.34232723
0.34147513
0.34062302
0.33977100
0.33892049
0.33806918
0.33721788
0.33636657
0.33551527
0.33466555
0.33381424
0.33296373
0.33211322
0.33126342
0.33041291
0.32956319
0.32871340
0.32786368
0.32701396
0.32616496
0.32531524
0.32446544
0.32361724
0.32276831
0.32191931
0.32107111
0.32022218
0.31937318
0.31852577
0.31767685
0.31682943
0.31598123
0.31513302
0.31428640
0.31343819
0.31259150
0.31174408
0.31089746
0.31005005
0.30920343
0.30835674
0.30751091
0.30666350
0.30581760
0.30497098
0.30412587
0.30327925
0.30243414
0.30158753
0.30074242
0.29989659
0.29905228
0.29820717
0.29736206
0.29651696
0.29567193
0.29482761
0.29398402
0.29313899
0.29229467
0.29145107
0.29060676
0.28976324
0.28891972
0.28807620
0.28723261
0.28638988
0.28554557
0.28470356
0.28386083
