corrn_curve_quartic
340244026589.09197998
340174678920.09350586
340104933957.72802734
340034983544.79272461
339964635370.70672607
339894088056.56060791
339823235111.93280029
339752086979.95397949
339680633536.86840820
339608880106.37805176
339536931444.30517578
339464584270.06475830
339392037867.29498291
339319087200.34576416
339245943765.41546631
339172502305.03613281
339098763002.37799072
339024726040.90490723
338950494235.11346436
338875862917.09204102
338801043385.77087402
338725818469.09423828
338650510834.10949707
338574798139.38171387
338498795423.75500488
338422491832.57891846
338345893060.30554199
338269111189.42761230
338191928656.43060303
338114558657.04626465
338036895074.96667480
337958938096.17810059
337880687906.95776367
337802144693.87347412
337723417782.82904053
337644289487.14208984
337564984462.18200684
337485388011.63909912
337405383740.83843994
337325198726.89294434
337244728679.23095703
337164079916.76104736
337083023196.02716064
337001682069.90496826
336920163998.91589355
336838356809.66479492
336756260690.87780762
336673755447.38452148
336591202421.03649902
336508240648.87115479
336424990704.94763184
336341574844.40252686
336257749547.39544678
336173753407.94506836
336089476820.65350342
336004913851.77862549
335920058484.19311523
335834923303.83789062
335749496065.41204834
335663789438.96148682
335578042748.61712646
335491759964.70013428
335405318756.47863770
335318593490.04650879
335231463243.48791504
335144297946.95947266
335056721681.21350098
334968990859.52258301
334880848626.03564453
334792546572.51629639
334703969095.65411377
334615109931.56323242
334525962734.10485840
334436540756.22521973
334346837672.96240234
334256979108.03704834
334166708166.28558350
334076296156.90325928
333985597978.98217773
333894620449.42327881
333803236386.26782227
333711828116.08380127
333620020448.28784180
333527927486.43981934
333435556151.26177979
333343042762.38995361
333250381911.33428955
333157177838.07788086
333063833521.83099365
332970212629.73046875
332876308451.05120850
332782266610.97698975
332687817539.46496582
332593225083.59368896
332498364796.79174805
332403152830.25195312
332307736326.91448975
332212116090.33551025
332116087910.49700928
332019991136.09545898
331923550439.97717285
331826908012.25854492
331729850160.54504395
331632662674.29162598
331535195968.35351562
331437392502.87817383
331339461605.08209229
331241252426.71795654
331142852345.81127930
331044101845.60937500
330945015087.80285645
330845796964.95898438
330746316521.21801758
330646632972.00006104
330546606659.23010254
330446311279.29296875
330345821322.70263672
330245070547.36657715
330144111493.54907227
330042892420.04754639
329941406080.07153320
329839502122.29833984
329737556935.83465576
329635269813.51947021
329532784515.88153076
329430116989.49884033
329327100312.99859619
329223902245.73583984
329120431655.42285156
329016704056.33526611
328912704302.21374512
328808517501.12829590
328703989574.99865723
328599205534.69134521
328494227902.84985352
328389065212.11657715
328283561824.53198242
328177874176.83758545
328071924455.31970215
327965791660.71911621
327859310702.53753662
327752655349.36657715
327645889946.10772705
327538713437.15972900
327431348261.40063477
327323731182.03613281
327215846433.67718506
327107710233.04968262
326999306738.25732422
326890724895.27447510
326781892662.76684570
326672794083.88641357
326563437438.47546387
326453904424.74615479
326344195823.97119141
326234222356.98651123
326123918523.80816650
326013358045.94274902
325902623576.02001953
325791633259.33575439
325680544670.25866699
325569043647.00024414
325457362286.52136230
325345434595.52453613
325233244123.65435791
325120966942.97595215
325008276952.87426758
324895408902.89971924
324782287609.01464844
324668921733.90124512
324555455557.35302734
324441661071.05865479
324327614558.31292725
324213486782.79516602
324098937224.44757080
323984221923.27258301
323869255813.90252686
323754116529.82507324
323638735817.41687012
323523018906.69390869
323407216543.55072021
323291078368.37719727
323174786642.06835938
323058324761.34399414
322941440192.23181152
322824569593.88525391
322707285130.99865723
322589744148.63104248
322472131743.95715332
322354184485.17651367
322235990467.23535156
322117727142.04882812
321999040614.87896729
321880366031.32580566
321761188015.41699219
321642032370.94067383
321522533860.96563721
321402889478.32476807
321282821343.79150391
321162769991.56091309
321042294914.81134033
320921757031.93469238
320800894819.73767090
320679962278.59356689
320558605780.37042236
320437189155.16113281
320315348277.80944824
320193539968.39013672
320071307476.08404541
319949017530.77026367
319826303111.72424316
319703624654.60900879
319580604991.87298584
319457262269.93457031
319333865339.70098877
319210127259.92285156
319086252604.30426025
318962223513.75537109
318837778842.69256592
318713273830.72668457
318588625227.25549316
318463551629.51989746
318338429105.42517090
318213070125.52429199
318087295195.38708496
317961558383.21911621
317835491184.10522461
317709188402.04864502
317582736020.74768066
317456058359.68212891
317329241773.37548828
317201999538.60034180
317074705217.01953125
316947186915.11938477
316819521986.26318359
316691440848.09179688
316563310189.90319824
316434947163.24401855
316306351988.01660156
316177437379.64941406
316048475812.92535400
315919283107.79803467
315789859484.67590332
315660303088.68920898
315530418465.64154053
315400303587.16210938
315270057120.00585938
315139581187.02795410
315008964921.95068359
314878129841.59411621
314747056391.84637451
314615764604.46691895
314484234856.81195068
314352586903.47485352
314220512075.83264160
314088399553.96154785
313956160387.12243652
313823594632.63092041
313690913071.95330811
313557995674.42675781
313424953548.83569336
313291585385.04754639
313158093280.28851318
313024366469.58703613
312890425431.87628174
312756260271.57446289
312621973084.02429199
312487360519.85363770
312352616494.21557617
312217762163.41345215
312082572704.68151855
311947273760.52929688
311811742650.56054688
311676000159.34472656
311540025918.21569824
311404037215.36743164
311267724616.68249512
311131191566.96887207
310994438291.60870361
310857569072.03417969
310720480411.66345215
310583068147.24249268
310445541116.06262207
310308004764.11743164
310170145651.84985352
310032058055.20166016
309893763194.42694092
309755250807.39172363
309616510566.05657959
309477870358.58703613
309338707215.84497070
309199528935.06701660
309060039302.64697266
308920323198.88366699
308780711058.44421387
308640671093.11926270
308500426957.43383789
308359957523.47399902
308219488064.26257324
308078697734.45935059
307937693786.68994141
307796681032.41711426
307655358680.09332275
307513715720.23046875
307372173724.84973145
307230214379.89111328
307088140749.12182617
306945975226.23217773
306803479197.76538086
306660783122.32910156
306517974579.94616699
306374955874.21447754
306231738179.52404785
306088409460.30639648
305944761818.68341064
305801124788.51611328
305657169295.67773438
305512895092.21978760
305368743552.36816406
305224163516.79565430
305079586081.49768066
304934701914.14862061
304789721792.05126953
304644424026.50988770
304499019948.83715820
304353532518.49975586
304207716813.24182129
304061818564.00769043
303915592156.76525879
303769384940.66650391
303622872426.49670410
303476256839.22192383
303329550093.38311768
303182414593.64953613
303035301320.22412109
302887872210.50799561
302740353493.71862793
302592632481.46997070
302444822947.77355957
302296800523.76422119
302148360464.66748047
302000060747.54034424
301851332198.68188477
301702619947.33166504
301553822083.47363281
301404492283.60717773
301255295130.87524414
301105898905.85418701
300956085192.12664795
300806406464.43530273
300656414286.54205322
300506119988.90673828
300355847322.14428711
300205481546.57977295
300054594137.51202393
299903846071.28857422
299752890016.92114258
299601749452.48333740
299450296402.68310547
299298764143.06091309
299147141670.70043945
298995335988.91845703
298843101264.91845703
298691011832.56231689
298538610995.47167969
298386145595.69104004
298233475008.17163086
298080375331.87109375
297927448178.93066406
297774198558.14978027
297620874832.01611328
297467359144.67260742
297313770416.78607178
297159752831.62750244
297005662679.13476562
296851500638.72863770
296697136187.46032715
296542712822.88885498
296387980174.83020020
296233165496.64111328
296078173532.79449463
295922980563.21789551
295767730963.39154053
295612040500.90350342
295456414355.46899414
295300588387.69799805
295144574865.16796875
294988386113.70434570
294832119232.49462891
294675665800.16711426
294519026054.94055176
294362200235.26000977
294205310177.64697266
294048234810.15576172
293890974371.35607910
293733516897.28491211
293575887018.19201660
293418195098.01025391
293260429557.90734863
293102492942.79522705
292944238246.72698975
292785812698.35815430
292627314998.48510742
292468647237.43566895
292309785036.22235107
292150740937.13244629
291991638767.71643066
291832367835.02514648
291673027515.72357178
291513382812.84545898
291353681842.79327393
291193676689.91198730
291033616030.71252441
290873375957.74951172
290713193652.60858154
290552720583.35339355
290391944117.63537598
290231101811.91284180
290070094073.47808838
289909146901.20422363
289747909822.71234131
289586357572.70727539
289424766722.35778809
289263238724.89703369
289101282873.16052246
288939277251.61547852
288777096154.58618164
288614866318.36816406
288452461763.39501953
288289768642.19555664
288127129465.45361328
287964202207.17163086
287801101199.50720215
287638081300.45935059
287474748490.88940430
287311128084.07086182
287147718034.46801758
286983867781.45556641
286819858277.99291992
286655920412.00036621
286491696097.44750977
286327544681.71405029
286162965965.73974609
285998229551.65625000
285833567525.71374512
285668607044.45910645
285503735085.54980469
285338435982.91528320
285173226418.91387939
285007719110.69805908
284842173048.91833496
284676329468.30700684
284510577718.42590332
284344515942.08715820
284178430159.47875977
284012047574.48071289
283845746069.40881348
283679030789.23693848
283512397572.93066406
283345481322.13409424
283178517504.03582764
283011270909.03491211
282844108601.27954102
282676913426.34277344
282509160462.95281982
282341637898.93383789
282173688912.24133301
282005840069.30590820
281837960482.55786133
281669522672.43078613
281501318663.83508301
281332688441.78967285
281164147881.66076660
280995591924.24255371
280826609985.29522705
280657586634.85949707
280488549042.47918701
280319205186.13885498
280149847857.79455566
279980317771.66845703
279810761892.04425049
279640927117.60260010
279471053951.93688965
279301022569.83361816
279130699307.11291504
278960486145.31396484
278790115756.90625000
278619588389.13952637
278448904289.47570801
278277929176.81616211
278107066885.36267090
277936048851.12573242
277764996728.70178223
277593668062.25231934
277422049255.92736816
277250532453.99426270
277078874907.23693848
276907049799.23864746
276735206531.10302734
276563087794.37023926
276390802205.80847168
276218499565.63977051
276046057986.13043213
275873586735.16143799
275700827323.18493652
275528052576.29138184
275355126514.75390625
275182186094.29553223
275008958270.16979980
274835703129.13790894
274662311590.84219360
274488770222.15170288
274315202841.78463745
274141225250.60607910
273967373412.13772583
273793359212.75851440
273619210421.00436401
273444899744.87850952
273270593003.16333008
273096263207.06494141
272921648272.92800903
272746886453.97692871
272572116468.48712158
272397200330.93154907
272222013462.79919434
272046930601.41921997
271871577510.87698364
271696079271.09851074
271520575291.81393433
271344926894.76501465
271169134330.99157715
270993197851.73983765
270817382976.26589966
270641299364.46505737
270465058834.29376221
270288689594.17602539
270112303983.48883057
269935650234.51675415
269758980821.33187866
269582310339.59808350
269405372396.07580566
269228420071.16461182
269051186513.03759766
268873953341.60144043
268696862104.90798950
268519349429.16888428
268341697268.74060059
268164047170.39520264
267986385577.36889648
267808458313.85290527
267630534421.02410889
267452331013.75531006
267274259360.57098389
267095922871.70202637
266917449360.21472168
266739109201.13995361
266560348382.64752197
266381607904.43841553
266202859878.09057617
266023833904.57873535
265844829603.98535156
265665804739.41302490
265486388219.40917969
265306965902.75817871
265127695783.28839111
264948005778.17810059
264768468903.61541748
264588655681.75061035
264408695254.36236572
264228760245.19061279
264048693106.26654053
263868623581.91046143
263688293040.34045410
263507975219.31842041
263327367883.47784424
263146788395.11596680
262966208472.66046143
262785224039.06439209
262604528876.04388428
262423415053.43328857
262242461464.07904053
262061103803.41656494
261880023334.87139893
261698553611.43438721
261517086442.19561768
261335622358.37133789
261153900118.53802490
260972196210.83734131
260790219931.76464844
260608408431.66363525
260426179237.10784912
260244101143.45843506
260062043548.51049805
259879583216.35070801
259697143914.11840820
259514565229.14965820
259332023109.38885498
259149342298.10375977
258966391051.32189941
258783609525.23455811
258600719590.10888672
258417545215.96832275
258234395092.78393555
258051269771.60400391
257867728131.43218994
257684359127.65985107
257500868764.79815674
257317257299.25701904
257133377374.84057617
256949657315.79846191
256765831878.99377441
256581871769.49023438
256397658816.56134033
256213622491.57824707
256029452427.45983887
255845163680.83581543
255660771346.71594238
255476097540.52441406
255291469060.81433105
255106856744.82794189
254922127221.95648193
254737280749.53607178
254552168638.49243164
254367237986.36059570
254182042211.24578857
253996879744.65313721
253811751123.67797852
253626358059.62316895
253440984591.60308838
253255361952.28961182
253069624871.20355225
252883923388.02764893
252698108163.85162354
252512314424.65771484
252326407625.55059814
252140403039.35528564
251954270904.36541748
251768176811.84271240
251581835498.32916260
251395517892.43005371
251209088958.27685547
251022548954.61956787
250836048916.53491211
250649302726.58319092
250462567025.45947266
250275736555.49548340
250088796489.24090576
249901898305.50671387
249714739912.71661377
249527624097.16845703
249340384750.23803711
249153052419.16882324
248965763881.37915039
248778504482.82220459
248590986238.26141357
248403376256.30255127
248215644421.90362549
248027821387.06109619
247840029177.88873291
247652131250.95477295
247464143100.77453613
247276186957.90991211
247088126047.28753662
246899808028.10742188
246711538277.25903320
246523164538.94543457
246334687073.57000732
246146412015.72229004
245957865763.75103760
245769232026.99896240
245580495772.29388428
245391948472.61535645
245203008121.36535645
245014104125.61022949
244824960638.30700684
244636161374.25402832
244446969640.01550293
244257662002.44561768
244068423310.40136719
243879223308.11566162
243689769865.39947510
243500371172.36614990
243310873565.73461914
243121277306.60968018
242931582656.28143311
242741944281.85302734
242552053713.22650146
242362220102.50628662
242172443948.73522949
241982416305.73309326
241792291999.53668213
241602210683.14752197
241412048863.96990967
241221930854.98742676
241031577925.22943115
240841269468.93426514
240650726476.02423096
240460228619.81372070
240269791912.20611572
240078965902.78112793
239888497171.67681885
239697623960.54492188
239506968977.69342041
239315909735.48065186
239125225425.65295410
238934137230.01751709
238743113040.03161621
238551997241.67248535
238360946273.15893555
238169491870.32135010
237978399838.51947021
237786920374.55316162
237595663559.09643555
237404301352.00738525
237212552081.93572998
237021167710.76361084
236829396671.22528076
236637834788.24255371
236446184612.22479248
236254148144.29205322
236062479085.76599121
235870408420.20117188
235678564759.84259033
235486634264.33349609
235294318257.80987549
235102356413.12164307
234910166920.31634521
234717891645.53552246
234525688469.76312256
234333400178.98632812
234140869280.18121338
233948411480.54339600
233756011462.09936523
233563543303.71856689
233370675422.25683594
233178182363.15985107
232985448127.05981445
232792805070.04315186
232599747106.89941406
232407081770.73663330
232214192021.05926514
232021204744.99383545
231828294616.25531006
231634986182.58038330
231442072835.58020020
231248920350.83282471
231055687631.51452637
230862533844.68176270
230669300483.31933594
230475669745.72412109
230282436996.38763428
230088950516.80310059
229895560657.88226318
229702092676.23675537
229508530900.84881592
229314907461.05847168
229121190744.35003662
228927572451.73486328
228733542308.20117188
228539770803.88360596
228346066918.37921143
228152127471.35852051
227958272258.85131836
227764197882.54461670
227570192409.46972656
227376272275.82098389
227182117720.16632080
226988033140.27746582
226793746580.00177002
226599514619.52038574
226405225426.08605957
226211023650.67242432
226016588802.77850342
225822225971.17645264
225627807112.82214355
225433316446.55957031
225239059577.93927002
225044410128.72485352
224849866562.02655029
224655236279.84997559
224460551718.36157227
224265780961.71099854
224071101418.27514648
223876207414.92761230
223681389166.71551514
223486808319.36755371
223291868718.60229492
223096989804.88244629
222901913748.24450684
222706915146.65484619
222511832911.19305420
222317022727.88867188
222121822581.39709473
221926717423.53167725
221731529786.08166504
221536292275.53106689
221341134643.77453613
221145927791.75653076
220950477669.28088379
220755140760.71838379
220559885099.70660400
220364419308.98406982
220169035395.18585205
219973749988.99414062
219778238989.62908936
219582502506.50225830
219387027751.49169922
219191490466.03741455
218995890916.98638916
218800229371.35540771
218604668669.22985840
218408883983.10833740
218213363451.21777344
218017456744.32580566
217821635875.49212646
217625933812.79998779
217430008950.81256104
217234008039.93267822
217038289875.50201416
216842333361.83679199
216646481055.05407715
216450423440.36853027
216254617526.48248291
216058443632.37475586
215862522157.46441650
215666380036.28179932
215470180753.50970459
215274087984.30865479
215077938683.99145508
214881896621.10467529
214685471561.42163086
214489481462.45605469
214293108809.66442871
214097008336.99572754
213900836751.50378418
213704299509.53826904
213508199347.09124756
213311701218.60174561
213115329625.51239014
212918904632.27368164
212722574107.04150391
212526190797.64862061
212329607293.35729980
212133283311.85211182
211936579088.90576172
211740167925.45458984
211543688988.17211914
211346994659.85699463
211150578117.44146729
210954111108.24462891
210757265041.84240723
210560697820.04199219
210364245448.86437988
210167414659.81500244
209970847393.71331787
209774247808.86352539
209577270366.69036865
209380738674.40130615
209183977862.38787842
208987350618.48327637
208790329868.75451660
208593608108.26324463
208396987956.79125977
208200156377.69763184
208003130022.52661133
207806371140.73760986
207609566590.52746582
207412733151.40118408
207216003218.81457520
207018898137.23870850
206822078826.27233887
206625215267.04357910
206428307728.58624268
206231356480.09863281
206034510619.77673340
205837472791.98822021
205640392062.54205322
205443434174.32342529
205246433995.17382812
205049540783.83782959
204852456862.95733643
204655480511.87854004
204458479575.51141357
204261421197.27435303
204064487924.20233154
203867365202.93261719
203670351622.21917725
203473298307.17047119
203276222112.43444824
203079256023.77825928
202881919245.08471680
202684875641.93591309
202487793718.75793457
202290839757.05224609
202093682035.08593750
201896652877.60314941
201699569931.90380859
201502466685.86590576
201305326801.93353271
201108150550.19439697
200910921578.03222656
200713839657.31567383
200516722239.73004150
200319552963.50860596
200122365359.55438232
199925126431.71441650
199728019487.98284912
199531061528.53973389
199333886699.61645508
199136678317.71826172
198939436653.40008545
198742328523.95672607
198545204366.11743164
198347864536.79412842
198150975730.74243164
197953738507.63916016
197756636362.61474609
197559336229.50561523
197362171768.84661865
197165143329.57788086
196968067795.10980225
196770811979.18811035
196573693073.25372314
196376694737.26269531
196179516913.99475098
195982293335.94201660
195785057653.80181885
195588110671.63671875
195390968547.29327393
195193815186.91064453
194996784491.95172119
194799559396.42651367
194602474252.84838867
194405529400.57263184
194208390937.41534424
194011075781.62817383
193814202652.96124268
193617002950.51818848
193419911567.86364746
193222978996.17968750
193025854352.05126953
192829022927.65051270
192631849406.64227295
192434651834.76770020
192237765146.04235840
192040670943.67041016
191843888282.20086670
191646764729.32067871
191449936600.30316162
191252768049.30908203
191055728090.73901367
190859001257.84100342
190661934747.96057129
190464997731.90173340
190268039762.80114746
190071228648.30114746
189874229605.28027344
189677377994.51110840
189480506551.30035400
189283783150.74401855
189087040493.52600098
188889943578.90698242
188693314076.85290527
188496347592.53424072
188299698271.99523926
188102695687.01953125
187906161811.95050049
187709442910.16857910
187512555983.46936035
187315970982.16271973
187119386272.35058594
186922433005.34161377
186725967133.31250000
186529166777.37786865
186332502040.17126465
186135990012.45098877
185939295306.34735107
185742753878.76733398
185546198165.16558838
185349796322.50268555
185153044967.57910156
184956615935.90429688
184760173728.95489502
184563550688.38153076
184367082935.74237061
184170753980.05340576
183974429751.94848633
183777925757.59613037
183581561403.90545654
183385202596.69427490
183188984010.96478271
182992754735.31762695
182796195807.72106934
182599945951.61804199
182403703025.47961426
182207601738.29876709
182011491138.05377197
181815371496.63873291
181618923761.20513916
181422786840.12487793
181226792966.75512695
181030656684.57568359
180834647198.87628174
180638647127.88031006
180442639935.18511963
180246794004.14361572
180050773390.91979980
179854897782.99810791
179658696711.78430176
179462826135.56396484
179267101405.85205078
179071220153.96343994
178875485301.33398438
178679594463.92498779
178483850578.28198242
178288270742.36968994
178092535736.72546387
177896780354.95373535
177701189850.06445312
177505596335.72497559
177310016901.45581055
177114418186.38403320
176918985453.01354980
176723382630.11157227
176528265871.65551758
176332828211.60595703
176137389454.19104004
175941949872.35278320
175746677917.75366211
175551220688.74218750
175355948451.24987793
175160676481.67810059
174965556412.88757324
174770285797.50000000
174575335803.17395020
174380235807.41674805
174185120624.94116211
173990007346.40539551
173794913061.95764160
173599972577.89184570
173405202977.46057129
173210268201.87939453
173015336691.24462891
172820425534.38293457
172625820862.61779785
172431068928.33850098
172236170014.35766602
172041410244.09155273
171847008458.28613281
171652275561.31420898
171457716235.10327148
171262994494.40270996
171068766283.05517578
170874224893.74389648
170679673221.01123047
170485481358.83276367
170291111643.76794434
170096597986.94531250
169902579383.73999023
169708232490.10314941
169513910559.65039062
169319916369.23425293
169125762801.79516602
168931618196.61718750
168737667665.59008789
168543541796.55187988
168349761746.46264648
168155823709.06616211
167961727984.23083496
167768130037.41333008
167574223750.15417480
167380664539.43859863
167186780773.25122070
166993244590.82800293
166799535587.11706543
166606191446.84008789
166412523906.33764648
166219188146.52673340
166025546369.36572266
165832236877.08923340
165638789831.73156738
165445675550.01074219
165252239625.81494141
165059153751.72045898
164865931437.74938965
164672875050.59313965
164479666014.10339355
164286640208.99792480
164093630098.58959961
163900803712.15954590
163707993539.41320801
163515032126.63659668
163322255215.77551270
163129663036.23535156
162936752769.76867676
162744178682.10192871
162551471535.71008301
162358950153.75268555
162166598000.19128418
161973946016.90649414
161781631398.88708496
161589352700.12634277
161396909126.23352051
161204837119.62536621
161012600788.52026367
160820552213.90234375
160628373400.58825684
160436366105.40539551
160244379852.21032715
160052582340.94860840
159860471566.69958496
159668717470.30688477
159476985472.68212891
159285275847.36364746
159093421538.86950684
158901924808.50427246
158710434502.55578613
158518984354.20324707
158327557906.06359863
158135988205.59790039
157944593279.82385254
157753406781.89233398
157562228320.20739746
157371091602.78808594
157179963473.20520020
156988877630.95275879
156797968000.91528320
156606767057.45874023
156415909905.07995605
156225079380.42138672
156034275757.30993652
155843666264.70764160
155652917242.57861328
155462362850.55761719
155271836407.30749512
155081338186.62658691
154890868462.45190430
154700594315.52331543
154510349162.28662109
154319966521.02563477
154129930258.61376953
153939773731.41076660
153749647293.27124023
153559701203.23657227
153369635741.62011719
153179767787.47167969
152989914307.99401855
152800258780.12512207
152610485020.29077148
152420893050.25927734
152231183446.76770020
152041656130.52221680
151852327938.16357422
151663032687.04040527
151473770650.74816895
151284375792.30566406
151095197664.89282227
150906036943.06066895
150717060130.56127930
150527968277.12133789
150339243601.66552734
150150387807.69714355
149961567359.28540039
149772765923.95300293
149584016992.25036621
149395304228.82617188
149206943251.08349609
149018469523.82788086
148830032723.01281738
148641616535.61669922
148453569507.74035645
148265245071.85583496
148077107854.38256836
147889025448.12902832
147701130680.46166992
147513274630.14916992
147325291935.51123047
147137679776.73791504
146949941521.54956055
146762077549.08471680
146574435779.51281738
146387132191.62268066
146199720222.81481934
146012183705.35119629
145825019074.88427734
145637730444.09936523
145450797501.34716797
145263592396.96777344
145076429502.50354004
144889788071.78466797
144702710311.77966309
144516154344.70507812
144329327867.52416992
144142528395.63647461
143956102660.17041016
143769572391.30334473
143583234780.46704102
143396776769.01818848
143210693198.87561035
143024341477.24682617
142838348104.07336426
142652235506.15344238
142466333389.33251953
142280312677.02856445
142094667485.78527832
141908739715.33691406
141723187849.19921875
141537518566.57495117
141352044639.17895508
141166634736.24426270
140981272686.93518066
140796106616.07409668
140610841057.77819824
140425771948.69689941
140240603978.07336426
140055797032.14611816
139870891763.99328613
139686019780.01696777
139501361737.56872559
139316606314.31896973
139132048894.63452148
138947706015.08813477
138763102815.86352539
138578862068.17871094
138394672754.06542969
138210371492.57153320
138026449522.03442383
137842416152.18273926
137658582475.63903809
137474654397.19995117
137290942817.88635254
137107284496.47167969
136923516381.43188477
136740112395.78051758
136556778726.85913086
136373482997.69738770
136190258123.15332031
136006924970.91955566
135823956761.55517578
135640897131.11193848
135458039770.47485352
135275238222.71472168
135092346210.13171387
134909657155.33068848
134727187469.96496582
134544774592.51708984
134362418796.69006348
134180120356.31433105
133997733268.75195312
133815550407.88012695
133633571908.13256836
133451521867.79431152
133269660400.32751465
133088036334.28234863
132906309116.57873535
132724641342.42993164
132543179184.05847168
132361793126.80749512
132180451028.08703613
131999185567.48132324
131817980813.49462891
131636982694.73120117
131455900127.20153809
131275024644.44128418
131094210865.87622070
130913475227.26306152
130732947235.40869141
130552320152.31201172
130371917319.40405273
130191577448.69689941
130011300814.09143066
129831103817.55163574
129651099571.57946777
129471030348.97082520
129291154333.18347168
129111358925.28149414
128931628282.71777344
128751962679.54455566
128572362389.93737793
128393133236.98937988
128213825041.30871582
128034582863.32141113
127855390913.24755859
127676281598.58593750
127497399641.24206543
127318729089.06506348
127139965298.70190430
126961285095.10192871
126782656679.00585938
126604096364.24377441
126425924729.72509766
126247677416.88208008
126069322860.20129395
125891197468.50537109
125713141425.17028809
125535474687.43798828
125357717816.36462402
125179871274.18164062
125002414481.54760742
124824868565.54174805
124647553040.74633789
124470149067.43981934
124293119362.18249512
124115858369.68920898
123938828607.52050781
123762173437.46655273
123585288040.67419434
123408459392.14526367
123232037598.99670410
123055513912.18469238
122879222458.35131836
122702861578.00585938
122526558717.21411133
122350647385.54980469
122174667494.77270508
121998904870.96801758
121823058508.66235352
121647287288.80969238
121471749821.61706543
121296287908.63354492
121121060022.80969238
120945591839.98120117
120770674355.01953125
120595517257.95715332
120420595006.86389160
120245734028.37792969
120071123956.97497559
119896275924.47973633
119721963075.34313965
119547428724.17822266
119373130300.93078613
119198894693.48974609
119024895291.34252930
118850676021.22924805
118676992198.54528809
118503246327.28381348
118329407461.20117188
118155962807.78198242
117982441428.31433105
117809173205.11840820
117635970035.31396484
117462691178.99572754
117289807026.87609863
117116691177.16052246
116943970283.46923828
116771331354.84729004
116598618329.67346191
116426284859.62121582
116254049658.03784180
116081741254.74853516
115909516183.36206055
115737515079.81250000
115565613307.03454590
115393795534.91674805
115222046463.94445801
115050553173.37719727
114879128992.44519043
114707649818.91284180
114536395892.16308594
114365382810.56909180
114194300083.99548340
114023318925.19519043
113852563670.83776855
113681894855.64929199
113511312752.80236816
113340972507.08935547
113170564569.51525879
113000244164.26794434
112830166197.60327148
112660176150.45239258
112490274295.95715332
112320615299.07214355
112151044879.90698242
111981393658.28515625
111811847153.70288086
111642544275.83679199
111473469654.76330566
111304346316.26269531
111135467015.27282715
110966662665.27197266
110797948929.51135254
110629341438.34130859
110460809741.94860840
110292522885.87719727
110124189578.81408691
109956086150.50744629
109788074807.82788086
109620171130.84143066
109452497756.26916504
109284764215.55383301
109117276669.23522949
108949882403.79711914
108782581692.06958008
108615374806.99902344
108448262021.64904785
108281380758.10778809
108114456914.00646973
107947780203.78686523
107781198512.56408691
107615000990.20556641
107448609989.69335938
107282299640.20776367
107116252374.49194336
106950286147.78015137
106784431579.55065918
106618658613.63208008
106452997834.39782715
106287721890.85107422
106122391935.35412598
105957174779.96435547
105792040457.25268555
105627004364.65124512
105462217661.21667480
105297529553.04699707
105132940312.61572266
104968299598.48547363
104803909002.59191895
104639918955.71850586
104475727821.60485840
104311787167.05639648
104147796677.10522461
103984192085.57360840
103820553219.43493652
103657165369.91723633
103493863767.09692383
103330678649.58300781
103167445703.52099609
103004599046.08410645
102841720065.02343750
102679078056.37829590
102516538738.12512207
102354117295.25476074
102191635132.77441406
102029554542.55505371
101867443584.19335938
101705704402.70349121
101543801611.71801758
101381988544.11987305
101220577263.32092285
101059122378.97937012
100898069247.07275391
100736824887.66101074
100575686296.39013672
100414934894.31640625
100254023259.63940430
100093484190.49877930
99932918696.81628418
99772740541.36206055
99612389003.80834961
99452439712.33605957
99292303210.28039551
99132554384.12878418
98972781102.17834473
98813395463.20251465
98653824319.00756836
98494670358.76843262
98335610517.49694824
98176366589.07055664
98017671861.35205078
97858808430.52966309
97700186728.18676758
97541821369.98779297
97383274095.50891113
97225129682.69152832
97066950177.35571289
96909173463.64294434
96751362200.85693359
96593662531.71289062
96436074728.21423340
96278875237.21960449
96121366532.76452637
95964406159.83459473
95807398776.90856934
95650518926.08178711
95493752364.55090332
95337229619.94506836
95180965142.57922363
95024539785.92687988
94868373218.62487793
94712450964.57006836
94556643228.97351074
94400676505.50231934
94245098823.36804199
94089780354.16137695
93934433502.58557129
93779073228.34387207
93624130766.89514160
93469275776.70031738
93314537262.09741211
93160058728.06127930
93005553870.36682129
92851023286.32824707
92696896296.25927734
92542872641.51660156
92388981163.82641602
92235207843.77136230
92081681174.69934082
91928144885.04748535
91774869815.57250977
91621699554.68005371
91468520785.38342285
91315589527.02526855
91162792307.58447266
91010242719.09020996
90857827466.56445312
90705518493.60607910
90553330240.54089355
90401262978.54724121
90249331092.02099609
90097647632.93054199
89945944847.66943359
89794504930.33972168
89643187133.81054688
89491991729.15673828
89341059437.13049316
89190109515.42321777
89039423019.71447754
88888859771.18603516
88738406041.64245605
88588090111.70349121
88438038001.51989746
88288096026.61120605
88138292397.90173340
87988473998.47607422
87838906109.28515625
87689477344.01184082
87540299187.60852051
87391121495.32983398
87242333569.37939453
87093532754.22631836
86944872123.78881836
86796324218.85241699
86647903181.25244141
86499623105.60876465
86351732837.95190430
86203831776.65063477
86056058428.16833496
85908413063.21508789
85760895952.60791016
85613782405.73449707
85466522376.00024414
85319528691.64733887
85172664103.87451172
85026052216.40869141
84879446524.56066895
84733107535.33581543
84586884814.82397461
84440805979.99133301
84294857621.78210449
84149162686.23718262
84003475982.41699219
83857906960.66650391
83712741397.69665527
83567584962.99816895
83422546812.37341309
83277776377.13281250
83133016213.83227539
82988375182.98278809
82844137500.71191406
82699775917.84545898
82555804206.06127930
82411830946.02954102
82267991477.84997559
82124555209.02331543
81980983884.23876953
81837802364.03588867
81694634466.36633301
81551735523.52697754
81408837551.51708984
81266208820.86950684
81123702169.34594727
80981478171.21765137
80839123049.95251465
80697157710.50805664
80555208813.56201172
80413649495.21899414
80271974218.74951172
80130688571.80969238
79989287995.73657227
79848277098.61132812
79707284700.62707520
79566681769.98559570
79426084637.71984863
79285625970.52978516
79145306038.16174316
79005138285.01611328
78865228233.32177734
78725575798.77917480
78585826245.64489746
78446334848.56689453
78307101521.50048828
78167890456.35864258
78028950844.75158691
77890151867.62548828
77751493794.24084473
77612963851.45385742
77474718698.84033203
77336354674.88061523
77198509970.69396973
77060690107.43835449
