corrn_curve_linear
1.29790048
1.29750144
1.29710353
1.29670449
1.29630600
1.29590754
1.29550905
1.29511114
1.29471323
1.29431474
1.29391682
1.29351891
1.29312100
1.29272309
1.29232575
1.29192784
1.29152993
1.29113257
1.29073520
1.29033787
1.28994050
1.28954317
1.28914580
1.28874847
1.28835168
1.28795490
1.28755753
1.28716132
1.28676396
1.28636717
1.28597096
1.28557418
1.28517794
1.28478115
1.28438494
1.28398870
1.28359250
1.28319683
1.28280062
1.28240439
1.28200873
1.28161252
1.28121685
1.28082119
1.28042553
1.28002987
1.27963421
1.27923855
1.27884346
1.27844780
1.27805327
1.27765761
1.27726249
1.27686741
1.27647287
1.27607779
1.27568268
1.27528814
1.27489363
1.27449910
1.27410399
1.27371003
1.27331549
1.27292096
1.27252700
1.27213246
1.27173850
1.27134452
1.27095056
1.27055660
1.27016261
1.26976865
1.26937524
1.26898183
1.26858787
1.26819446
1.26780105
1.26740767
1.26701426
1.26662085
1.26622802
1.26583516
1.26544177
1.26504891
1.26465608
1.26426325
1.26387096
1.26347755
1.26308527
1.26269243
1.26230015
1.26190789
1.26151561
1.26112303
1.26073078
1.26033878
1.25994678
1.25955479
1.25916305
1.25877134
1.25837935
1.25798793
1.25759564
1.25720422
1.25681278
1.25642136
1.25602991
1.25563878
1.25524733
1.25485617
1.25446530
1.25407417
1.25368330
1.25329243
1.25290156
1.25251069
1.25212010
1.25172952
1.25133894
1.25094833
1.25055775
1.25016800
1.24977771
1.24938741
1.24899709
1.24860709
1.24821705
1.24782702
1.24743701
1.24704727
1.24665781
1.24626806
1.24587861
1.24548886
1.24509941
1.24470995
1.24432104
1.24393158
1.24354241
1.24315322
1.24276405
1.24237543
1.24198626
1.24159735
1.24120847
1.24082014
1.24043123
1.24004264
1.23965402
1.23926595
1.23887736
1.23848903
1.23810096
1.23771262
1.23732429
1.23693683
1.23654850
1.23616042
1.23577296
1.23538518
1.23499713
1.23460993
1.23422214
1.23383494
1.23344718
1.23306027
1.23267277
1.23228528
1.23189836
1.23151115
1.23112424
1.23073732
1.23035066
1.22996345
1.22957711
1.22919017
1.22880383
1.22841688
1.22803054
1.22764388
1.22725780
1.22687146
1.22648538
1.22609901
1.22571293
1.22532685
1.22494106
1.22455527
1.22416919
1.22378368
1.22339789
1.22301236
1.22262686
1.22224106
1.22185582
1.22147087
1.22108507
1.22070012
1.22031516
1.21992966
1.21954499
1.21916004
1.21877482
1.21839013
1.21800575
1.21762108
1.21723613
1.21685175
1.21646737
1.21608296
1.21569830
1.21531421
1.21493009
1.21454600
1.21416217
1.21377779
1.21339396
1.21301013
1.21262630
1.21224276
1.21185867
1.21147513
1.21109159
1.21070831
1.21032477
1.20994152
1.20955826
1.20917527
1.20879202
1.20840877
1.20802577
1.20764281
1.20725982
1.20687714
1.20649444
1.20611173
1.20572903
1.20534664
1.20496423
1.20458181
1.20419939
1.20381724
1.20343485
1.20305270
1.20267057
1.20228873
1.20190660
1.20152474
1.20114290
1.20076103
1.20038003
1.19999819
1.19961661
1.19923503
1.19885377
1.19847219
1.19809090
1.19770961
1.19732832
1.19694761
1.19656661
1.19618560
1.19580457
1.19542357
1.19504286
1.19466240
1.19428169
1.19390124
1.19352053
1.19314036
1.19275994
1.19237948
1.19199932
1.19161944
1.19123928
1.19085914
1.19047898
1.19009936
1.18971948
1.18933961
1.18896002
1.18858043
1.18820055
1.18782123
1.18744164
1.18706231
1.18668327
1.18630368
1.18592438
1.18554563
1.18516631
1.18478756
1.18440852
1.18402951
1.18365101
1.18327200
1.18289351
1.18251476
1.18213659
1.18175784
1.18137963
1.18100117
1.18062326
1.18024480
1.17986691
1.17948842
1.17911079
1.17873262
1.17835471
1.17797682
1.17759920
1.17722128
1.17684395
1.17646603
1.17608869
1.17571162
1.17533399
1.17495666
1.17457932
1.17420227
1.17382548
1.17344814
1.17307136
1.17269460
1.17231723
1.17194076
1.17156426
1.17118718
1.17081068
1.17043447
1.17005771
1.16968150
1.16930526
1.16892905
1.16855255
1.16817663
1.16780041
1.16742475
1.16704828
1.16667262
1.16629695
1.16592132
1.16554511
1.16516973
1.16479436
1.16441872
1.16404361
1.16366826
1.16329260
1.16291752
1.16254214
1.16216734
1.16179226
1.16141746
1.16104237
1.16066784
1.16029246
1.15991795
1.15954313
1.15916862
1.15879408
1.15841986
1.15804532
1.15767107
1.15729685
1.15692260
1.15654864
1.15617439
1.15580043
1.15542647
1.15505251
1.15467884
1.15430517
1.15393121
1.15355780
1.15318412
1.15281045
1.15243704
1.15206366
1.15169082
1.15131744
1.15094431
1.15057119
1.15019810
1.14982497
1.14945214
1.14907901
1.14870675
1.14833392
1.14796108
1.14758854
1.14721599
1.14684345
1.14647116
1.14609890
1.14572635
1.14535407
1.14498181
1.14461010
1.14423810
1.14386584
1.14349384
1.14312242
1.14275045
1.14237874
1.14200732
1.14163561
1.14126390
1.14089248
1.14052135
1.14014990
1.13977848
1.13940764
1.13903621
1.13866534
1.13829421
1.13792305
1.13755249
1.13718162
1.13681049
1.13644019
1.13606932
1.13569902
1.13532844
1.13495814
1.13458759
1.13421700
1.13384697
1.13347667
1.13310666
1.13273637
1.13236665
1.13199661
1.13162690
1.13125689
1.13088714
1.13051742
1.13014796
1.12977851
1.12940879
1.12903962
1.12866987
1.12830070
1.12793124
1.12756236
1.12719348
1.12682402
1.12645514
1.12608597
1.12571737
1.12534875
1.12497958
1.12461099
1.12424265
1.12387377
1.12350544
1.12313713
1.12276851
1.12240021
1.12203216
1.12166412
1.12129579
1.12092774
1.12055998
1.12019194
1.11982389
1.11945614
1.11908838
1.11872091
1.11835287
1.11798537
1.11761819
1.11725070
1.11688352
1.11651631
1.11614855
1.11578135
1.11541443
1.11504754
1.11468062
1.11431370
1.11394678
1.11357957
1.11321294
1.11284631
1.11247968
1.11211305
1.11174670
1.11138036
1.11101399
1.11064765
1.11028131
1.10991522
1.10954917
1.10918309
1.10881701
1.10845124
1.10808516
1.10771936
1.10735360
1.10698809
1.10662230
1.10625679
1.10589129
1.10552578
1.10516028
1.10479503
1.10442953
1.10406431
1.10369964
1.10333471
1.10296950
1.10260454
1.10223961
1.10187465
1.10151001
1.10114506
1.10078097
1.10041630
1.10005163
1.09968699
1.09932261
1.09895852
1.09859414
1.09823002
1.09786564
1.09750184
1.09713774
1.09677365
1.09640982
1.09604631
1.09568219
1.09531838
1.09495458
1.09459133
1.09422778
1.09386424
1.09350099
1.09313747
1.09277422
1.09241125
1.09204771
1.09168445
1.09132178
1.09095881
1.09059556
1.09023288
1.08986988
1.08950749
1.08914479
1.08878240
1.08841969
1.08805702
1.08769463
1.08733221
1.08697008
1.08660769
1.08624556
1.08588343
1.08552159
1.08515917
1.08479762
1.08443549
1.08407394
1.08371181
1.08335026
1.08298842
1.08262713
1.08226586
1.08190400
1.08154302
1.08118118
1.08082018
1.08045862
1.08009762
1.07973691
1.07937561
1.07901464
1.07865392
1.07829292
1.07793220
1.07757178
1.07721077
1.07685035
1.07648989
1.07612892
1.07576875
1.07540861
1.07504790
1.07468773
1.07432759
1.07396772
1.07360729
1.07324741
1.07288753
1.07252794
1.07216780
1.07180793
1.07144834
1.07108875
1.07072945
1.07036986
1.07000998
1.06965068
1.06929166
1.06893236
1.06857306
1.06821402
1.06785501
1.06749571
1.06713667
1.06677794
1.06641919
1.06606015
1.06570171
1.06534296
1.06498450
1.06462574
1.06426731
1.06390910
1.06355067
1.06319220
1.06283403
1.06247585
1.06211765
1.06175976
1.06140159
1.06104370
1.06068578
1.06032789
1.05997027
1.05961238
1.05925475
1.05889715
1.05853953
1.05818219
1.05782459
1.05746725
1.05710991
1.05675315
1.05639581
1.05603876
1.05568171
1.05532466
1.05496761
1.05461056
1.05425406
1.05389730
1.05354054
1.05318377
1.05282727
1.05247106
1.05211459
1.05175808
1.05140161
1.05104569
1.05068918
1.05033297
1.04997679
1.04962115
1.04926494
1.04890901
1.04855309
1.04819745
1.04784153
1.04748586
1.04713051
1.04677488
1.04641921
1.04606386
1.04570852
1.04535343
1.04499779
1.04464242
1.04428762
1.04393256
1.04357718
1.04322238
1.04286732
1.04251278
1.04215772
1.04180321
1.04144841
1.04109416
1.04073936
1.04038514
1.04003034
1.03967583
1.03932187
1.03896736
1.03861340
1.03825946
1.03790495
1.03755128
1.03719703
1.03684338
1.03648913
1.03613574
1.03578178
1.03542814
1.03507472
1.03472108
1.03436769
1.03401402
1.03366063
1.03330751
1.03295412
1.03260103
1.03224793
1.03189451
1.03154171
1.03118887
1.03083577
1.03048294
1.03013042
1.02977729
1.02942474
1.02907222
1.02871996
1.02836712
1.02801458
1.02766232
1.02731034
1.02695751
1.02660554
1.02625357
1.02590159
1.02554959
1.02519733
1.02484536
1.02449368
1.02414197
1.02379029
1.02343857
1.02308715
1.02273518
1.02238376
1.02203236
1.02168094
1.02132980
1.02097867
1.02062725
1.02027611
1.01992527
1.01957413
1.01922329
1.01887186
1.01852102
1.01817017
1.01781958
1.01746903
1.01711818
1.01676760
1.01641733
1.01606674
1.01571644
1.01536589
1.01501559
1.01466587
1.01431586
1.01396559
1.01361558
1.01326557
1.01291556
1.01256555
1.01221583
1.01186611
1.01151639
1.01116664
1.01081750
1.01046778
1.01011832
1.00976889
1.00941945
1.00906999
1.00872111
1.00837197
1.00802279
1.00767362
1.00732448
1.00697588
1.00662700
1.00627783
1.00592894
1.00558064
1.00523204
1.00488316
1.00453456
1.00418626
1.00383795
1.00348933
1.00314131
1.00279300
1.00244467
1.00209636
1.00174860
1.00140030
1.00105283
1.00070478
1.00035676
1.00000900
0.99966125
0.99931349
0.99896602
0.99861829
0.99827108
0.99792335
0.99757588
0.99722867
0.99688120
0.99653431
0.99618713
0.99584020
0.99549274
0.99514610
0.99479892
0.99445229
0.99410540
0.99375876
0.99341187
0.99306524
0.99271861
0.99237226
0.99202566
0.99167931
0.99133297
0.99098662
0.99064057
0.99029394
0.98994814
0.98960208
0.98925603
0.98891026
0.98856392
0.98821812
0.98787264
0.98752656
0.98718108
0.98683557
0.98648981
0.98614430
0.98579908
0.98545331
0.98510809
0.98476316
0.98441795
0.98407244
0.98372751
0.98338258
0.98303765
0.98269243
0.98234750
0.98200283
0.98165819
0.98131354
0.98096861
0.98062394
0.98027959
0.97993521
0.97959083
0.97924647
0.97890180
0.97855774
0.97821365
0.97786955
0.97752546
0.97718137
0.97683756
0.97649376
0.97614940
0.97580560
0.97546205
0.97511825
0.97477473
0.97443122
0.97408767
0.97374416
0.97340090
0.97305738
0.97271415
0.97237090
0.97202767
0.97168470
0.97134145
0.97099851
0.97065554
0.97031257
0.96996960
0.96962692
0.96928425
0.96894157
0.96859917
0.96825650
0.96791410
0.96757171
0.96722903
0.96688662
0.96654451
0.96620212
0.96586028
0.96551815
0.96517605
0.96483392
0.96449181
0.96414997
0.96380842
0.96346660
0.96312476
0.96278292
0.96244136
0.96210010
0.96175855
0.96141699
0.96107544
0.96073446
0.96039320
0.96005164
0.95971092
0.95936966
0.95902839
0.95868768
0.95834670
0.95800569
0.95766472
0.95732429
0.95698331
0.95664288
0.95630217
0.95596148
0.95562131
0.95528062
0.95494019
0.95460005
0.95425962
0.95391977
0.95357935
0.95323947
0.95289933
0.95255890
0.95221933
0.95187919
0.95153960
0.95119975
0.95086016
0.95052031
0.95018101
0.94984115
0.94950185
0.94916226
0.94882296
0.94848394
0.94814438
0.94780536
0.94746606
0.94712705
0.94678774
0.94644902
0.94611000
0.94577099
0.94543223
0.94509322
0.94475478
0.94441632
0.94407730
0.94373886
0.94340069
0.94306196
0.94272349
0.94238535
0.94204688
0.94170870
0.94137055
0.94103266
0.94069420
0.94035631
0.94001871
0.93968082
0.93934264
0.93900504
0.93866744
0.93832981
0.93799192
0.93765432
0.93731701
0.93697967
0.93664236
0.93630447
0.93596742
0.93563010
0.93529305
0.93495600
0.93461898
0.93428193
0.93394516
0.93360785
0.93327109
0.93293432
0.93259756
0.93226108
0.93192432
0.93158785
0.93125134
0.93091487
0.93057839
0.93024220
0.92990573
0.92956951
0.92923333
0.92889740
0.92856121
0.92822529
0.92788910
0.92755317
0.92721728
0.92688164
0.92654571
0.92621007
0.92587444
0.92553880
0.92520319
0.92486755
0.92453220
0.92419711
0.92386176
0.92352641
0.92319135
0.92285600
0.92252091
0.92218585
0.92185108
0.92151599
0.92118122
0.92084613
0.92051135
0.92017655
0.91984233
0.91950755
0.91917304
0.91883824
0.91850402
0.91816979
0.91783528
0.91750080
0.91716683
0.91683261
0.91649838
0.91616445
0.91583051
0.91549629
0.91516232
0.91482868
0.91449474
0.91416078
0.91382742
0.91349374
0.91316035
0.91282671
0.91249303
0.91215993
0.91182629
0.91149319
0.91115980
0.91082641
0.91049360
0.91016024
0.90982740
0.90949431
0.90916150
0.90882840
0.90849588
0.90816307
0.90783052
0.90749742
0.90716515
0.90683234
0.90650011
0.90616727
0.90583504
0.90550249
0.90517052
0.90483799
0.90450602
0.90417376
0.90384179
0.90350984
0.90317758
0.90284589
0.90251392
0.90218224
0.90185055
0.90151858
0.90118715
0.90085576
0.90052378
0.90019239
0.89986125
0.89952957
0.89919817
0.89886703
0.89853564
0.89820450
0.89787365
0.89754252
0.89721141
0.89688056
0.89654971
0.89621887
0.89588776
0.89555720
0.89522664
0.89489605
0.89456549
0.89423467
0.89390437
0.89357381
0.89324354
0.89291327
0.89258326
0.89225270
0.89192243
0.89159242
0.89126244
0.89093243
0.89060270
0.89027272
0.88994300
0.88961328
0.88928356
0.88895386
0.88862385
0.88829442
0.88796469
0.88763526
0.88730583
0.88697668
0.88664725
0.88631810
0.88598893
0.88565978
0.88533064
0.88500149
0.88467261
0.88434346
0.88401515
0.88368627
0.88335741
0.88302853
0.88269996
0.88237136
0.88204276
0.88171419
0.88138560
0.88105729
0.88072927
0.88040096
0.88007265
0.87974434
0.87941604
0.87908802
0.87875971
0.87843224
0.87810422
0.87777620
0.87744818
0.87712042
0.87679294
0.87646521
0.87613748
0.87580972
0.87548254
0.87515510
0.87482762
0.87450044
0.87417297
0.87384582
0.87351834
0.87319145
0.87286427
0.87253708
0.87221048
0.87188329
0.87155640
0.87122977
0.87090287
0.87057627
0.87024937
0.86992274
0.86959642
0.86926978
0.86894347
0.86861683
0.86829051
0.86796417
0.86763785
0.86731179
0.86698545
0.86665968
0.86633336
0.86600756
0.86568153
0.86535577
0.86502971
0.86470420
0.86437817
0.86405266
0.86372689
0.86340141
0.86307564
0.86275042
0.86242494
0.86209975
0.86177453
0.86144905
0.86112383
0.86079864
0.86047342
0.86014877
0.85982329
0.85949865
0.85917372
0.85884878
0.85852414
0.85819950
0.85787459
0.85754995
0.85722557
0.85690066
0.85657628
0.85625192
0.85592757
0.85560321
0.85527883
0.85495476
0.85463041
0.85430631
0.85398225
0.85365844
0.85333437
0.85301028
0.85268647
0.85236269
0.85203917
0.85171537
0.85139185
0.85106778
0.85074427
0.85042104
0.85009752
0.84977426
0.84945074
0.84912751
0.84880399
0.84848076
0.84815782
0.84783459
0.84751162
0.84718868
0.84686571
0.84654306
0.84622009
0.84589744
0.84557447
0.84525182
0.84492942
0.84460674
0.84428409
0.84396170
0.84363930
0.84331691
0.84299452
0.84267241
0.84235002
0.84202792
0.84170581
0.84138371
0.84106161
0.84073947
0.84041795
0.84009613
0.83977429
0.83945247
0.83913065
0.83880910
0.83848728
0.83816602
0.83784446
0.83752293
0.83720167
0.83688011
0.83655884
0.83623786
0.83591662
0.83559536
0.83527409
0.83495340
0.83463242
0.83431115
0.83399018
0.83366974
0.83334877
0.83302808
0.83270710
0.83238696
0.83206627
0.83174558
0.83142514
0.83110474
0.83078431
0.83046417
0.83014377
0.82982334
0.82950349
0.82918308
0.82886294
0.82854309
0.82822295
0.82790338
0.82758324
0.82726339
0.82694382
0.82662397
0.82630440
0.82598455
0.82566525
0.82534539
0.82502641
0.82470655
0.82438754
0.82406797
0.82374895
0.82342939
0.82311066
0.82279110
0.82247237
0.82215306
0.82183437
0.82151506
0.82119662
0.82087789
0.82055888
0.82024044
0.81992142
0.81960298
0.81928454
0.81896582
0.81864738
0.81832894
0.81801050
0.81769232
0.81737388
0.81705573
0.81673784
0.81641940
0.81610151
0.81578364
0.81546575
0.81514760
0.81483000
0.81451211
0.81419451
0.81387664
0.81355904
0.81324144
0.81292384
0.81260624
0.81228892
0.81197161
0.81165429
0.81133698
0.81101938
0.81070235
0.81038530
0.81006827
0.80975125
0.80943422
0.80911688
0.80880014
0.80848338
0.80816664
0.80784987
0.80753314
0.80721637
0.80689990
0.80658342
0.80626697
0.80595049
0.80563373
0.80531725
0.80500106
0.80468487
0.80436869
0.80405250
0.80373631
0.80342041
0.80310451
0.80278832
0.80247242
0.80215649
0.80184117
0.80152553
0.80120963
0.80089399
0.80057838
0.80026274
0.79994713
0.79963178
0.79931642
0.79900081
0.79868546
0.79837069
0.79805533
0.79774027
0.79742492
0.79710986
0.79679479
0.79648002
0.79616525
0.79585018
0.79553541
0.79522035
0.79490612
0.79459134
0.79427657
0.79396206
0.79364728
0.79333308
0.79301857
0.79270408
0.79239015
0.79207563
0.79176143
0.79144721
0.79113327
0.79081904
0.79050485
0.79019120
0.78987726
0.78956332
0.78924967
0.78893574
0.78862209
0.78830841
0.78799450
0.78768140
0.78736746
0.78705436
0.78674071
0.78642706
0.78611399
0.78580060
0.78548753
0.78517414
0.78486133
0.78454797
0.78423516
0.78392206
0.78360927
0.78329617
0.78298365
0.78267055
0.78235802
0.78204521
0.78173269
0.78141988
0.78110735
0.78079483
0.78048231
0.78017007
0.77985755
0.77954557
0.77923305
0.77892081
0.77860884
0.77829660
0.77798466
0.77767268
0.77736071
0.77704876
0.77673707
0.77642513
0.77611344
0.77580175
0.77548978
0.77517838
0.77486707
0.77455538
0.77424370
0.77393230
0.77362119
0.77330950
0.77299839
0.77268728
0.77237614
0.77206503
0.77175364
0.77144281
0.77113171
0.77082086
0.77051003
0.77019890
0.76988836
0.76957751
0.76926695
0.76895642
0.76864586
0.76833530
0.76802474
0.76771392
0.76740364
0.76709337
0.76678310
0.76647282
0.76616255
0.76585257
0.76554258
0.76523231
0.76492233
0.76461234
0.76430262
0.76399263
0.76368291
0.76337293
0.76306323
0.76275351
0.76244410
0.76213437
0.76182497
0.76151524
0.76120584
0.76089640
0.76058725
0.76027782
0.75996841
0.75965981
0.75935040
0.75904126
0.75873240
0.75842325
0.75811410
0.75780525
0.75749639
0.75718779
0.75687893
0.75657036
0.75626150
0.75595290
0.75564462
0.75533602
0.75502745
0.75471888
0.75441057
0.75410229
0.75379398
0.75348567
0.75317739
0.75286965
0.75256134
0.75225332
0.75194559
0.75163731
0.75132957
0.75102181
0.75071382
0.75040608
0.75009861
0.74979088
0.74948314
0.74917570
0.74886797
0.74856052
0.74825334
0.74794589
0.74763871
0.74733126
0.74702382
0.74671692
0.74640948
0.74610258
0.74579540
0.74548879
0.74518163
0.74487502
0.74456784
0.74426123
0.74395433
0.74364773
0.74334086
0.74303451
0.74272790
0.74242158
0.74211469
0.74180866
0.74150205
0.74119573
0.74088938
0.74058335
0.74027732
0.73997097
0.73966494
0.73935862
