corrn_curve_linear
-0.62413642
-0.62196979
-0.61980018
-0.61763354
-0.61546393
-0.61329745
-0.61113082
-0.60896434
-0.60679771
-0.60463108
-0.60246758
-0.60030110
-0.59813761
-0.59597098
-0.59380748
-0.59164399
-0.58948049
-0.58731700
-0.58515648
-0.58299299
-0.58083263
-0.57866913
-0.57651176
-0.57435124
-0.57219089
-0.57003037
-0.56786986
-0.56571248
-0.56355212
-0.56139475
-0.55923737
-0.55708000
-0.55492262
-0.55276524
-0.55061085
-0.54845347
-0.54629923
-0.54414500
-0.54198762
-0.53983323
-0.53767899
-0.53552773
-0.53337334
-0.53121910
-0.52906784
-0.52691658
-0.52476533
-0.52261093
-0.52046281
-0.51831156
-0.51616030
-0.51401218
-0.51186092
-0.50971265
-0.50756453
-0.50541641
-0.50326813
-0.50112001
-0.49897174
-0.49682362
-0.49468162
-0.49253334
-0.49038821
-0.48824307
-0.48609495
-0.48395295
-0.48180781
-0.47966581
-0.47752067
-0.47537852
-0.47323652
-0.47109452
-0.46895236
-0.46681036
-0.46466836
-0.46252934
-0.46038718
-0.45824832
-0.45610930
-0.45397028
-0.45182829
-0.44969225
-0.44755339
-0.44541437
-0.44327535
-0.44113947
-0.43900657
-0.43686755
-0.43473167
-0.43259579
-0.43045975
-0.42832685
-0.42619097
-0.42405807
-0.42192533
-0.41979086
-0.41765796
-0.41552663
-0.41339232
-0.41126255
-0.40913122
-0.40700146
-0.40486856
-0.40273880
-0.40060888
-0.39847755
-0.39634936
-0.39422101
-0.39209439
-0.38996604
-0.38783627
-0.38570949
-0.38358287
-0.38145766
-0.37933088
-0.37720410
-0.37507889
-0.37295383
-0.37083003
-0.36870639
-0.36658275
-0.36445597
-0.36233389
-0.36021025
-0.35808802
-0.35596751
-0.35384528
-0.35172478
-0.34960412
-0.34748361
-0.34536295
-0.34324386
-0.34112320
-0.33900269
-0.33688360
-0.33476608
-0.33264698
-0.33052946
-0.32841194
-0.32629598
-0.32417830
-0.32206235
-0.31994938
-0.31783342
-0.31571888
-0.31360449
-0.31148995
-0.30937556
-0.30726102
-0.30514805
-0.30303523
-0.30092226
-0.29880929
-0.29669788
-0.29458805
-0.29247805
-0.29036665
-0.28825525
-0.28614541
-0.28403557
-0.28192872
-0.27981888
-0.27771046
-0.27560220
-0.27349377
-0.27138849
-0.26928022
-0.26717337
-0.26506651
-0.26295981
-0.26085594
-0.25875066
-0.25664537
-0.25454322
-0.25243794
-0.25033422
-0.24823051
-0.24612820
-0.24402605
-0.24192234
-0.23982160
-0.23771930
-0.23561872
-0.23351955
-0.23141725
-0.22931965
-0.22721907
-0.22511834
-0.22302074
-0.22092158
-0.21882241
-0.21672638
-0.21462722
-0.21253260
-0.21043343
-0.20833897
-0.20624279
-0.20414833
-0.20205073
-0.19995769
-0.19786150
-0.19576845
-0.19367399
-0.19158252
-0.18948790
-0.18739642
-0.18530181
-0.18321190
-0.18111885
-0.17902894
-0.17693589
-0.17484755
-0.17275749
-0.17066601
-0.16857767
-0.16648760
-0.16439926
-0.16231234
-0.16022243
-0.15813550
-0.15605014
-0.15396164
-0.15187628
-0.14979093
-0.14770259
-0.14561880
-0.14353344
-0.14144808
-0.13936413
-0.13728034
-0.13519812
-0.13311276
-0.13103038
-0.12894816
-0.12686735
-0.12478356
-0.12270275
-0.12062195
-0.11854114
-0.11645892
-0.11437968
-0.11230044
-0.11022120
-0.10814353
-0.10606429
-0.10398505
-0.10190737
-0.09982970
-0.09775344
-0.09567734
-0.09360108
-0.09152498
-0.08944872
-0.08737419
-0.08529652
-0.08322183
-0.08114871
-0.07907402
-0.07700106
-0.07492794
-0.07285638
-0.07078326
-0.06871171
-0.06664000
-0.06456845
-0.06249690
-0.06042692
-0.05835536
-0.05628522
-0.05421681
-0.05214667
-0.05007826
-0.04800969
-0.04594127
-0.04387270
-0.04180727
-0.03974027
-0.03767327
-0.03560626
-0.03354083
-0.03147540
-0.02940840
-0.02734297
-0.02528067
-0.02321681
-0.02115279
-0.01908892
-0.01702506
-0.01496104
-0.01290173
-0.01083786
-0.00877698
-0.00671468
-0.00465223
-0.00259449
-0.00053361
0.00152712
0.00358800
0.00564575
0.00770506
0.00976437
0.01182071
0.01387845
0.01593776
0.01799253
0.02005027
0.02210661
0.02416121
0.02621754
0.02827372
0.03032848
0.03238325
0.03443785
0.03649105
0.03854581
0.04059744
0.04265063
0.04470539
0.04675545
0.04880865
0.05085886
0.05291048
0.05496054
0.05701217
0.05906238
0.06111087
0.06316108
0.06520957
0.06725978
0.06930686
0.07135534
0.07340242
0.07544793
0.07749657
0.07954208
0.08158915
0.08363466
0.08568016
0.08772410
0.08976820
0.09181527
0.09385764
0.09590315
0.09794567
0.09998663
0.10203213
0.10407309
0.10611405
0.10815798
0.11019737
0.11223833
0.11428069
0.11632008
0.11835806
0.12040043
0.12243824
0.12447622
0.12651404
0.12855342
0.13059124
0.13262765
0.13466390
0.13670329
0.13873812
0.14077453
0.14280921
0.14484405
0.14688202
0.14891513
0.15094997
0.15298324
0.15501651
0.15704820
0.15908304
0.16111631
0.16314801
0.16517986
0.16721000
0.16924169
0.17127198
0.17330211
0.17533240
0.17736096
0.17939282
0.18142138
0.18345009
0.18547881
0.18750737
0.18953452
0.19156167
0.19358882
0.19561597
0.19764155
0.19966713
0.20169271
0.20371845
0.20574403
0.20776804
0.20979064
0.21181308
0.21383725
0.21586126
0.21788386
0.21990630
0.22192890
0.22395150
0.22597253
0.22799340
0.23001286
0.23203389
0.23405335
0.23607438
0.23809384
0.24011330
0.24212978
0.24414767
0.24616714
0.24818518
0.25020308
0.25221799
0.25423431
0.25625236
0.25826868
0.26028202
0.26229850
0.26431341
0.26632833
0.26834167
0.27035501
0.27236976
0.27438169
0.27639503
0.27840838
0.28041858
0.28243051
0.28444385
0.28645249
0.28846442
0.29047619
0.29248498
0.29449518
0.29650241
0.29851277
0.30052297
0.30253019
0.30453899
0.30654464
0.30855343
0.31055909
0.31256631
0.31457196
0.31657918
0.31858327
0.32058908
0.32259316
0.32459882
0.32660149
0.32860714
0.33060982
0.33261390
0.33461657
0.33662066
0.33862176
0.34062130
0.34262554
0.34462507
0.34662775
0.34862728
0.35062525
0.35262792
0.35462588
0.35662699
0.35862511
0.36062151
0.36262104
0.36461916
0.36661556
0.36861368
0.37061008
0.37260663
0.37460162
0.37659801
0.37859300
0.38058798
0.38258454
0.38457795
0.38657137
0.38856478
0.39055820
0.39255318
0.39454503
0.39653688
0.39852731
0.40051916
0.40251257
0.40450301
0.40649329
0.40848372
0.41047259
0.41246286
0.41445330
0.41644216
0.41843087
0.42041817
0.42240703
0.42439433
0.42638163
0.42836735
0.43035465
0.43234053
0.43432626
0.43631199
0.43829630
0.44028360
0.44226776
0.44425207
0.44623623
0.44822055
0.45020314
0.45218431
0.45416706
0.45614981
0.45813098
0.46011216
0.46209475
0.46407452
0.46605569
0.46803687
0.47001648
0.47199609
0.47397570
0.47595530
0.47793193
0.47990997
0.48188817
0.48386621
0.48584283
0.48782087
0.48979750
0.49177256
0.49374903
0.49572409
0.49770071
0.49967577
0.50164769
0.50362275
0.50559781
0.50757130
0.50954337
0.51151686
0.51348878
0.51546227
0.51743278
0.51940470
0.52137662
0.52334556
0.52531764
0.52728799
0.52925693
0.53122744
0.53319622
0.53516375
0.53713410
0.53910304
0.54106884
0.54303778
0.54500358
0.54697095
0.54893847
0.55090428
0.55287008
0.55483447
0.55680027
0.55876450
0.56073046
0.56269469
0.56465751
0.56662331
0.56858456
0.57054895
0.57251020
0.57447443
0.57643427
0.57839693
0.58035819
0.58231802
0.58427928
0.58623896
0.58820021
0.59015832
0.59211957
0.59407784
0.59603454
0.59799423
0.59995234
0.60191061
0.60386715
0.60582385
0.60778212
0.60973725
0.61169223
0.61364893
0.61560406
0.61755763
0.61951433
0.62146789
0.62342145
0.62537502
0.62733015
0.62928230
0.63123429
0.63318644
0.63514001
0.63709043
0.63904101
0.64099159
0.64294202
0.64489417
0.64684459
0.64879361
0.65074262
0.65269163
0.65464221
0.65658966
0.65853867
0.66048611
0.66243199
0.66437943
0.66632547
0.66827291
0.67022035
0.67216623
0.67411210
0.67605656
0.67800103
0.67994533
0.68188980
0.68383269
0.68577700
0.68771989
0.68966278
0.69160568
0.69354700
0.69548974
0.69743122
0.69937254
0.70131387
0.70325362
0.70519495
0.70713471
0.70907462
0.71101437
0.71295256
0.71488933
0.71682768
0.71876586
0.72070421
0.72264240
0.72457917
0.72651594
0.72845256
0.73038777
0.73232297
0.73425975
0.73619495
0.73813016
0.74006536
0.74199743
0.74393123
0.74586486
0.74779850
0.74972915
0.75166279
0.75359502
0.75552865
0.75745774
0.75938981
0.76132203
0.76325253
0.76518162
0.76711227
0.76904136
0.77097044
0.77289953
0.77482862
0.77675613
0.77868522
0.78061274
0.78253869
0.78446620
0.78639372
0.78831983
0.79024578
0.79217031
0.79409626
0.79602080
0.79794675
0.79987128
0.80179425
0.80372020
0.80564160
0.80756613
0.80948753
0.81141207
0.81333190
0.81525486
0.81717626
0.81909766
0.82101749
0.82294046
0.82485887
0.82678027
0.82869853
0.83061695
0.83253835
0.83445520
0.83637503
0.83829187
0.84020872
0.84212855
0.84404383
0.84596225
0.84787753
0.84979281
0.85171107
0.85362493
0.85554021
0.85745549
0.85936920
0.86128291
0.86319819
0.86511190
0.86702420
0.86893634
0.87085162
0.87276235
0.87467465
0.87658522
0.87849909
0.88040825
0.88231882
0.88422955
0.88613871
0.88805101
0.88995860
0.89186776
0.89377692
0.89568451
0.89759210
0.89950283
0.90140885
0.90331660
0.90522262
0.90712865
0.90903483
0.91094085
0.91284703
0.91475148
0.91665923
0.91856368
0.92046672
0.92237133
0.92427437
0.92617883
0.92808187
0.92998334
0.93188638
0.93378801
0.93569089
0.93759252
0.93949399
0.94139390
0.94329537
0.94519543
0.94709533
0.94899524
0.95089216
0.95279222
0.95469055
0.95658904
0.95848738
0.96038587
0.96228279
0.96418112
0.96607805
0.96797199
0.96986875
0.97176426
0.97366103
0.97555638
0.97745189
0.97934410
0.98123946
0.98313324
0.98502718
0.98692097
0.98881334
0.99070555
0.99259949
0.99449171
0.99638251
0.99827473
1.00016553
1.00205476
1.00394557
1.00583794
1.00772717
1.00961641
1.01150564
1.01339487
1.01528254
1.01717177
1.01905787
1.02094710
1.02283492
1.02472102
1.02660868
1.02849651
1.03038103
1.03226729
1.03415197
1.03603807
1.03792118
1.03980728
1.04169039
1.04357507
1.04545976
1.04734287
1.04922599
1.05110753
1.05299222
1.05487219
1.05675531
1.05863529
1.06051542
1.06239853
1.06427694
1.06615864
1.06803862
1.06991860
1.07179716
1.07367573
1.07555570
1.07743270
1.07931283
1.08118967
1.08306667
1.08494523
1.08682066
1.08869609
1.09057465
1.09245008
1.09432393
1.09620093
1.09807494
1.09994880
1.10182580
1.10369809
1.10557210
1.10744439
1.10931997
1.11119226
1.11306314
1.11493558
1.11680944
1.11868032
1.12055119
1.12242191
1.12429122
1.12616367
1.12803298
1.12990228
1.13177159
1.13364090
1.13550879
1.13737810
1.13924741
1.14111515
1.14298289
1.14484921
1.14671695
1.14858328
1.15044945
1.15231577
1.15418053
1.15604670
1.15791146
1.15977621
1.16164082
1.16350400
1.16537033
1.16723352
1.16909671
1.17095833
1.17282151
1.17468313
1.17654491
1.17840653
1.18026815
1.18212977
1.18399155
1.18585160
1.18771165
1.18957185
1.19143190
1.19329211
1.19515075
1.19700766
1.19886630
1.20072494
1.20258358
1.20444065
1.20629756
1.20815620
1.21001029
1.21186735
1.21372286
1.21557992
1.21743542
1.21928936
1.22114344
1.22299894
1.22485288
1.22670540
1.22855933
1.23041341
1.23226735
1.23411830
1.23597082
1.23782318
1.23967413
1.24152665
1.24337760
1.24522698
1.24707793
1.24893029
1.25077826
1.25262905
1.25447859
1.25632640
1.25817579
1.26002219
1.26187157
1.26372095
1.26556719
1.26741516
1.26925999
1.27110780
1.27295264
1.27480045
1.27664685
1.27849011
1.28033635
1.28218118
1.28402602
1.28586928
1.28771411
1.28955737
1.29140063
1.29324233
1.29508402
1.29692885
1.29876913
1.30061239
1.30245252
1.30429578
1.30613449
1.30797477
1.30981647
1.31165518
1.31349373
1.31533558
1.31717273
1.31901285
1.32085156
1.32268871
1.32452742
1.32636456
1.32820170
1.33003728
1.33187599
1.33371156
1.33554714
1.33738428
1.33921985
1.34105402
1.34288802
1.34472360
1.34655776
1.34839176
1.35022436
1.35205695
1.35389252
1.35572512
1.35755755
1.35938858
1.36121960
1.36305062
1.36488463
1.36671565
1.36854526
1.37037613
1.37220574
1.37403520
1.37586465
1.37769254
1.37952199
1.38135004
1.38318106
1.38500895
1.38683542
1.38866331
1.39048978
1.39231767
1.39414414
1.39596904
1.39779536
1.39962183
1.40144674
1.40327164
1.40509639
1.40692130
1.40874463
1.41056954
1.41238989
1.41421323
1.41603656
1.41785990
1.41968167
1.42150516
1.42332693
1.42514869
1.42696905
1.42879081
1.43060960
1.43242980
1.43425015
1.43607051
1.43789071
1.43970949
1.44152671
1.44334549
1.44516428
1.44698291
1.44879871
1.45061593
1.45243456
1.45425193
1.45606601
1.45788323
1.45969888
1.46151609
1.46332876
1.46514441
1.46696021
1.46877272
1.47058696
1.47240260
1.47421370
1.47602794
1.47784202
1.47965311
1.48146578
1.48327845
1.48508939
1.48690205
1.48871158
1.49052268
1.49233535
1.49414346
1.49595456
1.49776252
1.49957362
1.50138158
1.50319126
1.50499765
1.50680718
1.50861373
1.51042326
1.51222981
1.51403777
1.51584274
1.51765086
1.51945584
1.52126223
1.52306721
1.52487376
1.52667873
1.52848371
1.53028712
1.53209053
1.53389551
1.53569892
1.53750076
1.53930574
1.54110774
1.54291115
1.54471299
1.54651342
1.54831682
1.55011725
1.55191752
1.55371952
1.55551822
1.55731865
1.55911751
1.56091778
1.56271664
1.56451550
1.56631279
1.56811322
1.56991051
1.57170780
1.57350509
1.57530395
1.57709967
1.57889555
1.58069127
1.58248699
1.58428428
1.58608016
1.58787432
1.58966862
1.59146278
1.59325709
1.59505124
1.59684398
1.59863970
1.60043244
1.60222518
1.60401792
1.60580909
1.60760183
1.60939300
1.61118418
1.61297535
1.61476652
1.61655612
1.61834572
1.62013689
1.62192508
1.62371469
1.62550429
1.62729248
1.62908208
1.63087012
1.63265831
1.63444493
1.63623296
1.63801958
1.63980761
1.64159424
1.64337929
1.64516434
1.64694939
1.64873601
1.65052091
1.65230596
1.65408960
1.65587465
1.65765657
1.65944005
1.66122353
1.66300717
1.66479066
1.66657414
1.66835464
1.67013656
1.67191847
1.67370054
1.67547947
1.67726139
1.67904189
1.68082224
1.68260117
1.68438010
1.68616060
1.68793797
1.68971690
1.69149740
1.69327618
1.69505213
1.69682950
1.69860843
1.70038422
1.70216159
1.70393597
1.70571334
1.70749070
1.70926351
1.71104088
1.71281369
1.71458949
1.71636544
1.71813825
1.71991248
1.72168529
1.72345968
1.72523092
1.72700515
1.72877639
1.73054921
1.73232045
1.73409327
1.73586294
1.73763576
1.73940543
1.74117668
1.74294651
1.74471619
1.74648586
1.74825412
1.75002380
1.75179206
1.75356174
1.75532844
1.75709654
1.75886481
1.76063150
1.76239961
1.76416630
1.76593143
1.76769954
1.76946466
1.77122979
1.77299648
1.77476004
1.77652517
1.77828888
1.78005401
1.78181756
1.78358112
1.78534625
1.78710839
1.78887038
1.79063252
1.79239451
1.79415807
1.79591864
1.79768063
1.79944121
1.80120178
1.80296377
1.80472435
1.80648335
1.80824236
1.81000137
1.81176037
1.81352079
1.81527980
1.81703739
1.81879624
1.82055384
1.82230971
1.82406714
1.82582458
1.82758061
1.82933648
1.83109250
1.83284837
1.83460424
1.83635870
1.83811457
1.83986902
1.84162348
1.84337778
1.84513067
1.84688512
1.84863801
1.85039090
1.85214379
1.85389652
1.85564799
1.85740072
1.85915220
1.86090352
1.86265484
1.86440616
1.86615747
1.86790581
1.86965556
1.87140531
1.87315522
1.87490497
1.87665315
1.87839992
1.88014825
1.88189643
1.88364477
1.88539311
1.88713831
1.88888492
1.89063326
1.89238003
1.89412680
1.89587043
1.89761563
1.89936239
1.90110603
1.90285122
1.90459486
1.90634006
1.90808227
1.90982747
1.91157110
1.91331175
1.91505538
1.91679917
1.91853966
1.92028188
1.92202253
1.92376459
1.92550681
1.92724589
1.92898638
1.93072547
1.93246611
1.93420676
1.93594584
1.93768493
1.93942244
1.94116309
1.94289903
1.94463811
1.94637562
1.94811329
1.94984923
1.95158831
1.95332284
1.95506035
1.95679630
1.95853240
1.96026693
1.96200444
1.96373740
1.96547177
1.96720787
1.96894083
1.97067536
1.97240817
1.97414113
1.97587566
1.97760705
1.97934158
1.98107298
1.98280437
1.98453733
1.98626731
1.98799713
1.98972852
1.99145992
1.99318990
1.99491972
1.99664954
1.99837952
2.00010778
2.00183619
2.00356601
2.00529442
2.00702127
2.00874968
2.01047793
2.01220477
2.01393162
2.01565846
2.01738373
2.01911058
2.02083742
2.02256269
2.02428796
2.02601324
2.02773694
2.02946065
2.03118608
2.03291135
2.03463505
2.03635735
2.03808105
2.03980319
2.04152548
2.04324777
2.04496990
2.04669220
2.04841292
2.05013506
2.05185578
2.05357650
2.05529707
2.05701622
2.05873695
2.06045610
2.06217525
2.06389441
2.06561356
2.06733272
2.06905046
2.07076961
2.07248720
2.07420478
2.07591939
2.07763697
2.07935471
2.08107073
2.08278690
2.08450292
2.08621909
2.08793511
2.08964814
2.09136275
2.09307719
2.09479180
2.09650640
2.09821944
2.09993247
2.10164551
2.10336011
2.10507315
2.10678304
2.10849608
2.11020755
2.11192058
2.11363063
2.11534210
2.11705200
2.11876205
2.12047195
2.12218341
2.12389190
2.12560180
2.12731028
2.12901877
2.13072709
2.13243715
2.13414406
2.13585239
2.13755790
2.13926622
2.14097471
2.14268006
2.14438697
2.14609075
2.14779767
2.14950458
2.15120852
2.15291528
2.15461921
2.15632456
2.15802692
2.15973227
2.16143448
2.16313983
2.16484219
2.16654597
2.16824677
2.16995070
2.17165134
2.17335214
2.17505607
2.17675530
2.17845751
2.18015831
2.18185754
2.18355990
2.18525913
2.18695993
2.18865759
2.19035681
2.19205604
2.19375527
2.19545152
2.19715231
2.19884840
2.20054622
2.20224388
2.20394154
2.20563778
2.20733246
2.20903012
2.21072621
2.21242089
2.21411556
2.21581322
2.21750790
2.21920101
2.22089569
2.22259178
2.22428457
2.22597768
2.22767079
2.22936233
2.23105544
2.23275012
2.23444166
2.23613335
2.23782489
2.23951643
2.24120656
2.24289810
2.24458807
2.24627820
2.24796974
2.24965987
2.25134984
2.25303839
2.25472680
2.25641536
2.25810391
2.25979247
2.26148087
2.26316786
2.26485642
2.26654341
2.26823040
2.26991739
2.27160281
2.27328980
2.27497522
2.27666064
2.27834622
2.28003164
2.28171549
2.28339950
2.28508335
2.28676877
2.28845278
2.29013663
2.29181907
2.29350293
2.29518380
2.29686624
2.29854852
2.30023096
2.30191340
2.30359568
2.30527498
2.30695585
2.30863672
2.31031759
2.31199846
2.31367620
2.31535707
2.31703637
2.31871567
2.32039356
2.32207286
2.32375059
2.32542848
2.32710622
2.32878395
2.33046027
2.33213800
2.33381589
2.33549064
2.33716681
2.33884313
2.34051788
2.34219404
2.34387036
2.34554354
2.34721971
2.34889289
2.35056764
2.35224239
2.35391401
2.35558876
2.35726053
2.35893371
2.36060532
2.36227851
2.36395012
2.36562189
2.36729193
2.36896512
2.37063532
2.37230693
2.37397556
2.37564718
2.37731581
2.37898742
2.38065606
2.38232610
2.38399316
2.38566180
2.38733043
2.38899906
2.39066754
2.39233460
2.39400025
2.39566873
2.39733579
2.39900144
2.40066850
2.40233400
2.40399949
2.40566499
2.40733064
2.40899456
2.41066163
2.41232414
2.41398807
