corrn_curve_quadratic
0.15034961
0.15011217
0.14987573
0.14963896
0.14940285
0.14916709
0.14893165
0.14869688
0.14846244
0.14822800
0.14799424
0.14776080
0.14752770
0.14729493
0.14706283
0.14683073
0.14659896
0.14636785
0.14613706
0.14590663
0.14567651
0.14544673
0.14521728
0.14498817
0.14475971
0.14453159
0.14430346
0.14407633
0.14384887
0.14362206
0.14339592
0.14316979
0.14294429
0.14271881
0.14249400
0.14226949
0.14204534
0.14182182
0.14159832
0.14137514
0.14115261
0.14093011
0.14070824
0.14048670
0.14026549
0.14004461
0.13982406
0.13960384
0.13938427
0.13916471
0.13894610
0.13872720
0.13850893
0.13829100
0.13807371
0.13785644
0.13763948
0.13742317
0.13720720
0.13699154
0.13677590
0.13656121
0.13634653
0.13613219
0.13591848
0.13570479
0.13549174
0.13527900
0.13506660
0.13485452
0.13464276
0.13443134
0.13422055
0.13401007
0.13379963
0.13358981
0.13338032
0.13317116
0.13296232
0.13275380
0.13254592
0.13233834
0.13213081
0.13192389
0.13171730
0.13151104
0.13130539
0.13109947
0.13089447
0.13068951
0.13048516
0.13028114
0.13007744
0.12987391
0.12967086
0.12946828
0.12926602
0.12906408
0.12886260
0.12866146
0.12846049
0.12826014
0.12805967
0.12785997
0.12766058
0.12746152
0.12726277
0.12706450
0.12686640
0.12666876
0.12647159
0.12627461
0.12607808
0.12588188
0.12568600
0.12549044
0.12529534
0.12510056
0.12490611
0.12471196
0.12451815
0.12432508
0.12413205
0.12393934
0.12374694
0.12355502
0.12336340
0.12317211
0.12298114
0.12279063
0.12260057
0.12241070
0.12222128
0.12203204
0.12184326
0.12165481
0.12146693
0.12127911
0.12109175
0.12090469
0.12071797
0.12053182
0.12034573
0.12016009
0.11997478
0.11979004
0.11960535
0.11942113
0.11923721
0.11905387
0.11887061
0.11868778
0.11850539
0.11832319
0.11814132
0.11796016
0.11777892
0.11759812
0.11741791
0.11723788
0.11705804
0.11687890
0.11669981
0.11652131
0.11634287
0.11616513
0.11598744
0.11581006
0.11563327
0.11545666
0.11528049
0.11510464
0.11492923
0.11475388
0.11457924
0.11440463
0.11423062
0.11405665
0.11388326
0.11371005
0.11353741
0.11336497
0.11319295
0.11302113
0.11284974
0.11267867
0.11250804
0.11233772
0.11216759
0.11199803
0.11182865
0.11165970
0.11149108
0.11132264
0.11115476
0.11098731
0.11081981
0.11065299
0.11048648
0.11032004
0.11015428
0.10998870
0.10982333
0.10965849
0.10949410
0.10932989
0.10916588
0.10900242
0.10883927
0.10867642
0.10851377
0.10835168
0.10818988
0.10802841
0.10786736
0.10770639
0.10754596
0.10738583
0.10722602
0.10706664
0.10690734
0.10674858
0.10659013
0.10643209
0.10627426
0.10611685
0.10595976
0.10580308
0.10564660
0.10549043
0.10533467
0.10517924
0.10502410
0.10486940
0.10471500
0.10456091
0.10440712
0.10425377
0.10410071
0.10394797
0.10379553
0.10364350
0.10349169
0.10334028
0.10318918
0.10303851
0.10288803
0.10273796
0.10258821
0.10243875
0.10228994
0.10214111
0.10199268
0.10184456
0.10169687
0.10154937
0.10140228
0.10125550
0.10110903
0.10096308
0.10081732
0.10067188
0.10052672
0.10038189
0.10023746
0.10009345
0.09994963
0.09980622
0.09966302
0.09952033
0.09937785
0.09923566
0.09909388
0.09895251
0.09881134
0.09867049
0.09852992
0.09838987
0.09825002
0.09811048
0.09797134
0.09783251
0.09769388
0.09755575
0.09741783
0.09728031
0.09714319
0.09700618
0.09686957
0.09673347
0.09659746
0.09646196
0.09632666
0.09619167
0.09605716
0.09592278
0.09578888
0.09565519
0.09552201
0.09538892
0.09525633
0.09512395
0.09499206
0.09486028
0.09472901
0.09459782
0.09446724
0.09433676
0.09420668
0.09407690
0.09394752
0.09381834
0.09368965
0.09356107
0.09343299
0.09330529
0.09317771
0.09305052
0.09292363
0.09279714
0.09267104
0.09254505
0.09241955
0.09229435
0.09216925
0.09204475
0.09192053
0.09179643
0.09167281
0.09154958
0.09142648
0.09130385
0.09118151
0.09105947
0.09093765
0.09081630
0.09069516
0.09057450
0.09045387
0.09033380
0.09021403
0.09009456
0.08997521
0.08985642
0.08973792
0.08961964
0.08950182
0.08938423
0.08926683
0.08914991
0.08903320
0.08891696
0.08880092
0.08868528
0.08856983
0.08845486
0.08833992
0.08822555
0.08811137
0.08799758
0.08788408
0.08777097
0.08765807
0.08754554
0.08743332
0.08732138
0.08720982
0.08709847
0.08698751
0.08687683
0.08676645
0.08665645
0.08654675
0.08643725
0.08632821
0.08621939
0.08611086
0.08600270
0.08589484
0.08578743
0.08568016
0.08557325
0.08546664
0.08536033
0.08525430
0.08514865
0.08504321
0.08493831
0.08483354
0.08472905
0.08462495
0.08452113
0.08441761
0.08431445
0.08421159
0.08410894
0.08400666
0.08390467
0.08380313
0.08370180
0.08360069
0.08349994
0.08339964
0.08329948
0.08319968
0.08310025
0.08300104
0.08290211
0.08280356
0.08270537
0.08260738
0.08250969
0.08241245
0.08231534
0.08221867
0.08212222
0.08202605
0.08193033
0.08183481
0.08173952
0.08164473
0.08155008
0.08145587
0.08136188
0.08126824
0.08117483
0.08108171
0.08098900
0.08089653
0.08080441
0.08071251
0.08062104
0.08052978
0.08043888
0.08034820
0.08025788
0.08016785
0.08007817
0.07998877
0.07989961
0.07981086
0.07972226
0.07963408
0.07954613
0.07945859
0.07937135
0.07928425
0.07919758
0.07911112
0.07902509
0.07893934
0.07885375
0.07876857
0.07868374
0.07859907
0.07851482
0.07843085
0.07834710
0.07826371
0.07818066
0.07809790
0.07801535
0.07793316
0.07785131
0.07776969
0.07768835
0.07760736
0.07752666
0.07744630
0.07736610
0.07728631
0.07720686
0.07712764
0.07704876
0.07697017
0.07689174
0.07681371
0.07673602
0.07665863
0.07658151
0.07650468
0.07642813
0.07635180
0.07627588
0.07620024
0.07612488
0.07604981
0.07597507
0.07590062
0.07582645
0.07575256
0.07567896
0.07560569
0.07553271
0.07546001
0.07538758
0.07531551
0.07524365
0.07517213
0.07510090
0.07502999
0.07495932
0.07488898
0.07481892
0.07474915
0.07467965
0.07461049
0.07454156
0.07447296
0.07440475
0.07433676
0.07426901
0.07420158
0.07413444
0.07406757
0.07400105
0.07393474
0.07386887
0.07380318
0.07373776
0.07367263
0.07360783
0.07354336
0.07347912
0.07341520
0.07335151
0.07328821
0.07322513
0.07316233
0.07309986
0.07303772
0.07297575
0.07291412
0.07285276
0.07279178
0.07273102
0.07267054
0.07261039
0.07255048
0.07249088
0.07243161
0.07237253
0.07231376
0.07225537
0.07219721
0.07213928
0.07208172
0.07202439
0.07196743
0.07191069
0.07185429
0.07179811
0.07174221
0.07168663
0.07163132
0.07157634
0.07152159
0.07146716
0.07141300
0.07135916
0.07130551
0.07125227
0.07119921
0.07114652
0.07109402
0.07104187
0.07098996
0.07093841
0.07088713
0.07083605
0.07078536
0.07073483
0.07068468
0.07063474
0.07058515
0.07053587
0.07048679
0.07043802
0.07038957
0.07034135
0.07029344
0.07024584
0.07019844
0.07015139
0.07010461
0.07005804
0.07001185
0.06996593
0.06992021
0.06987484
0.06982974
0.06978494
0.06974035
0.06969611
0.06965213
0.06960846
0.06956500
0.06952184
0.06947899
0.06943641
0.06939414
0.06935211
0.06931031
0.06926886
0.06922770
0.06918679
0.06914615
0.06910581
0.06906574
0.06902592
0.06898639
0.06894717
0.06890822
0.06886950
0.06883113
0.06879299
0.06875515
0.06871755
0.06868025
0.06864325
0.06860650
0.06857001
0.06853383
0.06849791
0.06846226
0.06842691
0.06839180
0.06835699
0.06832245
0.06828818
0.06825421
0.06822048
0.06818704
0.06815387
0.06812098
0.06808837
0.06805601
0.06802395
0.06799215
0.06796068
0.06792942
0.06789845
0.06786775
0.06783732
0.06780716
0.06777727
0.06774769
0.06771836
0.06768930
0.06766050
0.06763199
0.06760377
0.06757580
0.06754810
0.06752066
0.06749353
0.06746663
0.06744002
0.06741367
0.06738763
0.06736182
0.06733629
0.06731103
0.06728606
0.06726133
0.06723689
0.06721274
0.06718883
0.06716519
0.06714183
0.06711874
0.06709593
0.06707335
0.06705106
0.06702906
0.06700732
0.06698582
0.06696462
0.06694368
0.06692302
0.06690260
0.06688248
0.06686261
0.06684303
0.06682369
0.06680464
0.06678583
0.06676729
0.06674905
0.06673104
0.06671333
0.06669588
0.06667867
0.06666176
0.06664509
0.06662871
0.06661256
0.06659672
0.06658112
0.06656579
0.06655074
0.06653594
0.06652141
0.06650714
0.06649314
0.06647941
0.06646593
0.06645273
0.06643979
0.06642710
0.06641470
0.06640256
0.06639067
0.06637905
0.06636770
0.06635660
0.06634578
0.06633522
0.06632492
0.06631488
0.06630510
0.06629559
0.06628635
0.06627735
0.06626863
0.06626018
0.06625198
0.06624405
0.06623637
0.06622895
0.06622181
0.06621492
0.06620830
0.06620193
0.06619583
0.06618998
0.06618440
0.06617908
0.06617402
0.06616922
0.06616469
0.06616040
0.06615639
0.06615263
0.06614913
0.06614590
0.06614291
0.06614019
0.06613774
0.06613554
0.06613360
0.06613192
0.06613049
0.06612933
0.06612843
0.06612778
0.06612739
0.06612726
0.06612739
0.06612778
0.06612842
0.06612933
0.06613049
0.06613190
0.06613358
0.06613551
0.06613770
0.06614015
0.06614286
0.06614581
0.06614903
0.06615251
0.06615624
0.06616022
0.06616447
0.06616896
0.06617372
0.06617873
0.06618400
0.06618952
0.06619529
0.06620132
0.06620762
0.06621416
0.06622095
0.06622800
0.06623532
0.06624288
0.06625069
0.06625876
0.06626709
0.06627566
0.06628449
0.06629358
0.06630293
0.06631251
0.06632237
0.06633245
0.06634281
0.06635342
0.06636428
0.06637539
0.06638676
0.06639837
0.06641024
0.06642236
0.06643474
0.06644737
0.06646024
0.06647338
0.06648674
0.06650038
0.06651425
0.06652841
0.06654278
0.06655742
0.06657230
0.06658744
0.06660283
0.06661847
0.06663436
0.06665051
0.06666689
0.06668353
0.06670042
0.06671756
0.06673495
0.06675258
0.06677049
0.06678861
0.06680700
0.06682564
0.06684451
0.06686367
0.06688305
0.06690266
0.06692256
0.06694268
0.06696305
0.06698368
0.06700455
0.06702566
0.06704705
0.06706866
0.06709050
0.06711260
0.06713498
0.06715757
0.06718042
0.06720351
0.06722687
0.06725047
0.06727429
0.06729837
0.06732269
0.06734728
0.06737211
0.06739716
0.06742247
0.06744802
0.06747383
0.06749990
0.06752618
0.06755271
0.06757949
0.06760652
0.06763380
0.06766130
0.06768906
0.06771711
0.06774536
0.06777384
0.06780258
0.06783156
0.06786078
0.06789025
0.06791997
0.06794991
0.06798013
0.06801057
0.06804125
0.06807219
0.06810335
0.06813478
0.06816643
0.06819833
0.06823048
0.06826287
0.06829549
0.06832835
0.06836146
0.06839479
0.06842840
0.06846222
0.06849629
0.06853064
0.06856520
0.06859998
0.06863504
0.06867029
0.06870581
0.06874158
0.06877759
0.06881385
0.06885033
0.06888702
0.06892399
0.06896120
0.06899867
0.06903634
0.06907423
0.06911240
0.06915081
0.06918947
0.06922830
0.06926742
0.06930681
0.06934635
0.06938620
0.06942630
0.06946657
0.06950713
0.06954792
0.06958896
0.06963018
0.06967171
0.06971342
0.06975541
0.06979763
0.06984004
0.06988275
0.06992568
0.06996882
0.07001223
0.07005581
0.07009972
0.07014379
0.07018814
0.07023278
0.07027754
0.07032262
0.07036787
0.07041340
0.07045914
0.07050516
0.07055134
0.07059784
0.07064451
0.07069147
0.07073862
0.07078598
0.07083365
0.07088149
0.07092962
0.07097794
0.07102655
0.07107531
0.07112436
0.07117366
0.07122315
0.07127293
0.07132286
0.07137304
0.07142354
0.07147420
0.07152505
0.07157624
0.07162762
0.07167920
0.07173106
0.07178313
0.07183542
0.07188792
0.07194075
0.07199373
0.07204691
0.07210037
0.07215411
0.07220801
0.07226215
0.07231652
0.07237119
0.07242604
0.07248109
0.07253638
0.07259191
0.07264777
0.07270373
0.07275998
0.07281642
0.07287310
0.07293002
0.07298717
0.07304452
0.07310220
0.07316003
0.07321810
0.07327640
0.07333489
0.07339367
0.07345264
0.07351186
0.07357130
0.07363099
0.07369086
0.07375102
0.07381137
0.07387195
0.07393273
0.07399379
0.07405504
0.07411658
0.07417830
0.07424026
0.07430241
0.07436485
0.07442747
0.07449033
0.07455343
0.07461675
0.07468033
0.07474408
0.07480802
0.07487224
0.07493671
0.07500135
0.07506629
0.07513141
0.07519676
0.07526229
0.07532813
0.07539413
0.07546043
0.07552691
0.07559363
0.07566047
0.07572765
0.07579502
0.07586268
0.07593046
0.07599848
0.07606679
0.07613533
0.07620399
0.07627295
0.07634214
0.07641151
0.07648111
0.07655100
0.07662108
0.07669133
0.07676187
0.07683265
0.07690353
0.07697472
0.07704608
0.07711773
0.07718962
0.07726162
0.07733398
0.07740645
0.07747921
0.07755221
0.07762531
0.07769877
0.07777235
0.07784622
0.07792026
0.07799460
0.07806904
0.07814378
0.07821869
0.07829396
0.07836927
0.07844494
0.07852071
0.07859686
0.07867309
0.07874964
0.07882628
0.07890328
0.07898039
0.07905779
0.07913536
0.07921316
0.07929126
0.07936946
0.07944796
0.07952662
0.07960551
0.07968470
0.07976400
0.07984352
0.07992341
0.08000339
0.08008354
0.08016405
0.08024472
0.08032557
0.08040670
0.08048801
0.08056947
0.08065124
0.08073323
0.08081538
0.08089777
0.08098039
0.08106330
0.08114630
0.08122954
0.08131301
0.08139670
0.08148070
0.08156478
0.08164917
0.08173371
0.08181848
0.08190341
0.08198872
0.08207418
0.08215980
0.08224564
0.08233172
0.08241795
0.08250449
0.08259118
0.08267810
0.08276525
0.08285262
0.08294030
0.08302806
0.08311612
0.08320434
0.08329278
0.08338138
0.08347028
0.08355933
0.08364862
0.08373813
0.08382786
0.08391783
0.08400795
0.08409836
0.08418878
0.08427958
0.08437061
0.08446187
0.08455326
0.08464490
0.08473676
0.08482884
0.08492115
0.08501361
0.08510622
0.08519913
0.08529227
0.08538564
0.08547924
0.08557298
0.08566703
0.08576106
0.08585548
0.08595012
0.08604500
0.08614002
0.08623518
0.08633065
0.08642634
0.08652227
0.08661825
0.08671454
0.08681106
0.08690772
0.08700469
0.08710179
0.08719921
0.08729669
0.08739447
0.08749249
0.08759055
0.08768901
0.08778761
0.08788636
0.08798541
0.08808460
0.08818410
0.08828374
0.08838352
0.08848361
0.08858383
0.08868437
0.08878504
0.08888595
0.08898707
0.08908833
0.08918990
0.08929152
0.08939354
0.08949561
0.08959798
0.08970050
0.08980332
0.08990620
0.09000947
0.09011279
0.09021642
0.09032018
0.09042426
0.09052839
0.09063282
0.09073738
0.09084217
0.09094727
0.09105251
0.09115796
0.09126364
0.09136936
0.09147557
0.09158174
0.09168821
0.09179491
0.09190174
0.09200879
0.09211615
0.09222364
0.09233127
0.09243930
0.09254737
0.09265565
0.09276416
0.09287289
0.09298185
0.09309092
0.09320031
0.09330984
0.09341957
0.09352944
0.09363962
0.09375003
0.09386056
0.09397130
0.09408218
0.09419337
0.09430469
0.09441641
0.09452817
0.09464004
0.09475224
0.09486457
0.09497720
0.09508996
0.09520304
0.09531623
0.09542955
0.09554318
0.09565695
0.09577092
0.09588513
0.09599944
0.09611408
0.09622883
0.09634391
0.09645910
0.09657441
0.09669005
0.09680589
0.09692186
0.09703805
0.09715446
0.09727109
0.09738783
0.09750489
0.09762207
0.09773947
0.09785708
0.09797491
0.09809297
0.09821103
0.09832941
0.09844802
0.09856684
0.09868588
0.09880503
0.09892451
0.09904399
0.09916380
0.09928382
0.09940396
0.09952442
0.09964499
0.09976567
0.09988667
0.10000789
0.10012933
0.10025077
0.10037254
0.10049463
0.10061683
0.10073903
0.10086167
0.10098441
0.10110747
0.10123043
0.10135382
0.10147743
0.10160115
0.10172507
0.10184923
0.10197348
0.10209806
0.10222286
0.10234765
0.10247287
0.10259821
0.10272365
0.10284941
0.10297517
0.10310137
0.10322767
0.10335407
0.10348080
0.10360763
0.10373479
0.10386195
0.10398954
0.10411700
0.10424503
0.10437293
0.10450126
0.10462959
0.10475836
0.10488700
0.10501620
0.10514527
0.10527478
0.10540427
0.10553422
0.10566403
0.10579417
0.10592464
0.10605509
0.10618599
0.10631687
0.10644796
0.10657938
0.10671090
0.10684263
0.10697457
0.10710662
0.10723900
0.10737146
0.10750403
0.10763704
0.10777003
0.10790323
0.10803665
0.10817039
0.10830412
0.10843818
0.10857232
0.10870680
0.10884137
0.10897616
0.10911116
0.10924637
0.10938167
0.10951718
0.10965290
0.10978884
0.10992511
0.11006135
0.11019781
0.11033447
0.11047134
0.11060842
0.11074585
0.11088323
0.11102083
0.11115864
0.11129666
0.11143489
0.11157334
0.11171187
0.11185061
0.11198956
0.11212872
0.11226823
0.11240781
0.11254749
0.11268737
0.11282746
0.11296776
0.11310827
0.11324887
0.11338967
0.11353082
0.11367204
0.11381349
0.11395488
0.11409662
0.11423868
0.11438084
0.11452319
0.11466577
0.11480854
0.11495141
0.11509448
0.11523789
0.11538138
0.11552482
0.11566873
0.11581272
0.11595705
0.11610146
0.11624608
0.11639077
0.11653567
0.11668092
0.11682623
0.11697190
0.11711738
0.11726332
0.11740947
0.11755571
0.11770228
0.11784879
0.11799566
0.11814272
0.11828973
0.11843722
0.11858477
0.11873254
0.11888038
0.11902856
0.11917694
0.11932527
0.11947394
0.11962282
0.11977177
0.11992107
0.12007043
0.12022001
0.12036992
0.12051964
0.12066997
0.12082010
0.12097071
0.12112152
0.12127227
0.12142337
0.12157452
0.12172604
0.12187748
0.12202939
0.12218125
0.12233345
0.12248570
0.12263831
0.12279085
0.12294387
0.12309682
0.12325012
0.12340348
0.12355719
0.12371096
0.12386494
0.12401912
0.12417336
0.12432796
0.12448249
0.12463749
0.12479256
0.12494770
0.12510318
0.12525872
0.12541447
0.12557044
0.12572659
0.12588282
0.12603938
0.12619602
0.12635286
0.12651005
0.12666715
0.12682442
0.12698208
0.12713994
0.12729786
0.12745584
0.12761432
0.12777270
0.12793129
0.12809010
0.12824910
0.12840845
0.12856771
0.12872732
0.12888699
0.12904686
0.12920710
0.12936722
0.12952772
0.12968826
0.12984900
0.13000995
0.13017111
0.13033247
0.13049416
0.13065578
0.13081760
0.13097962
0.13114184
0.13130426
0.13146674
0.13162942
0.13179245
0.13195554
0.13211882
0.13228217
0.13244586
0.13260962
0.13277371
0.13293786
0.13310222
0.13326661
0.13343138
0.13359618
0.13376134
0.13392654
0.13409196
0.13425743
0.13442325
0.13458925
0.13475503
0.13492144
0.13508791
0.13525442
0.13542130
0.13558837
0.13575549
0.13592281
0.13609019
0.13625791
0.13642568
0.13659380
0.13676198
0.13693019
0.13709877
0.13726754
0.13743651
0.13760553
0.13777474
0.13794417
0.13811379
0.13828360
0.13845331
0.13862354
0.13879380
0.13896411
0.13913492
0.13930562
0.13947654
0.13964779
0.13981909
0.13999045
0.14016215
0.14033405
0.14050599
0.14067829
0.14085063
0.14102302
0.14119575
0.14136854
0.14154167
0.14171501
0.14188823
0.14206196
0.14223557
0.14240955
0.14258340
0.14275776
0.14293201
0.14310678
0.14328143
0.14345643
0.14363147
0.14380686
0.14398214
0.14415778
0.14433344
0.14450963
0.14468553
0.14486195
0.14503841
0.14521508
0.14539176
0.14556864
0.14574590
0.14592318
0.14610082
