corrn_curve_quartic
-6.40211965
-6.36807247
-6.33407571
-6.30022265
-6.26642001
-6.23276298
-6.19920004
-6.16573594
-6.13236570
-6.09909161
-6.06596154
-6.03288163
-5.99994280
-5.96705177
-5.93430369
-5.90165071
-5.86909272
-5.83662958
-5.80430571
-5.77203178
-5.73989892
-5.70781366
-5.67591297
-5.64405965
-5.61230233
-5.58063627
-5.54906367
-5.51763005
-5.48624610
-5.45499833
-5.42384322
-5.39278066
-5.36181052
-5.33093267
-5.30018946
-5.26949568
-5.23893826
-5.20847236
-5.17805367
-5.14776835
-5.11757639
-5.08751702
-5.05750464
-5.02758521
-4.99779763
-4.96810031
-4.93849311
-4.90893293
-4.87954862
-4.85021106
-4.82096313
-4.79184717
-4.76277799
-4.73383816
-4.70498931
-4.67622919
-4.64755560
-4.61897260
-4.59047588
-4.56206948
-4.53383173
-4.50559913
-4.47749544
-4.44947924
-4.42151166
-4.39371086
-4.36595639
-4.33832932
-4.31074858
-4.28329273
-4.25592526
-4.22864403
-4.20144693
-4.17433781
-4.14731456
-4.12041448
-4.09356051
-4.06683315
-4.04018896
-4.01362977
-3.98711863
-3.96076593
-3.93446294
-3.90824254
-3.88210652
-3.85609293
-3.83019935
-3.80431539
-3.77855310
-3.75287433
-3.72727708
-3.70180055
-3.67637149
-3.65106078
-3.62583459
-3.60067063
-3.57560761
-3.55064525
-3.52573020
-3.50095017
-3.47623366
-3.45161695
-3.42704559
-3.40259177
-3.37821735
-3.35390795
-3.32971523
-3.30560145
-3.28158772
-3.25763496
-3.23374673
-3.20997212
-3.18627925
-3.16268189
-3.13914683
-3.11569139
-3.09233267
-3.06905494
-3.04587001
-3.02276571
-2.99974019
-2.97675947
-2.95390813
-2.93111828
-2.90842180
-2.88582175
-2.86328123
-2.84083676
-2.81846822
-2.79617879
-2.77396506
-2.75184490
-2.72978543
-2.70780457
-2.68591512
-2.66411842
-2.64238204
-2.62073806
-2.59917022
-2.57769431
-2.55627676
-2.53495238
-2.51373343
-2.49255992
-2.47147578
-2.45046828
-2.42953419
-2.40867649
-2.38789197
-2.36719740
-2.34657873
-2.32603278
-2.30556097
-2.28517829
-2.26488446
-2.24466269
-2.22450090
-2.20441253
-2.18441232
-2.16448518
-2.14465900
-2.12487754
-2.10518197
-2.08556036
-2.06600966
-2.04656016
-2.02715519
-2.00783516
-1.98858692
-1.96941178
-1.95033374
-1.93131421
-1.91236588
-1.89351672
-1.87471035
-1.85598876
-1.83733780
-1.81876979
-1.80027345
-1.78183355
-1.76348979
-1.74520223
-1.72699942
-1.70887836
-1.69079973
-1.67283082
-1.65490554
-1.63704805
-1.61928607
-1.60157957
-1.58394173
-1.56639864
-1.54889766
-1.53150270
-1.51413807
-1.49688022
-1.47967587
-1.46255325
-1.44547254
-1.42849615
-1.41156155
-1.39471932
-1.37793264
-1.36123654
-1.34458205
-1.32801895
-1.31149744
-1.29507919
-1.27870238
-1.26241600
-1.24617103
-1.23002816
-1.21393741
-1.19790122
-1.18195429
-1.16605929
-1.15024235
-1.13450083
-1.11880156
-1.10318920
-1.08765286
-1.07215742
-1.05674935
-1.04140518
-1.02610301
-1.01089783
-0.99574474
-0.98065509
-0.96563892
-0.95068700
-0.93580927
-0.92097204
-0.90621875
-0.89152913
-0.87691185
-0.86233600
-0.84784317
-0.83341235
-0.81904342
-0.80472657
-0.79049183
-0.77631855
-0.76220660
-0.74816645
-0.73417677
-0.72024809
-0.70639071
-0.69259401
-0.67886716
-0.66520171
-0.65159545
-0.63805033
-0.62456420
-0.61114909
-0.59777350
-0.58447672
-0.57124938
-0.55807135
-0.54496343
-0.53191353
-0.51893236
-0.50600012
-0.49313627
-0.48032993
-0.46758293
-0.45489416
-0.44227307
-0.42970041
-0.41719415
-0.40475596
-0.39236496
-0.38004169
-0.36777476
-0.35556592
-0.34341319
-0.33133571
-0.31930576
-0.30733244
-0.29541561
-0.28356416
-0.27176891
-0.26002083
-0.24833766
-0.23672796
-0.22516506
-0.21365683
-0.20220489
-0.19080827
-0.17946599
-0.16820447
-0.15697299
-0.14581246
-0.13469894
-0.12363911
-0.11265879
-0.10171592
-0.09082802
-0.07999330
-0.06922887
-0.05850992
-0.04784457
-0.03724802
-0.02669748
-0.01619213
-0.00576296
0.00462843
0.01495989
0.02523010
0.03545641
0.04562952
0.05574338
0.06580512
0.07581408
0.08576433
0.09567040
0.10550979
0.11530524
0.12505675
0.13473475
0.14437645
0.15395323
0.16348577
0.17296035
0.18239158
0.19176585
0.20108197
0.21035573
0.21957165
0.22874535
0.23785525
0.24692176
0.25593249
0.26488698
0.27380587
0.28266197
0.29147582
0.30023402
0.30894345
0.31759760
0.32620394
0.33477436
0.34327685
0.35174422
0.36015126
0.36850405
0.37682763
0.38508510
0.39329511
0.40146969
0.40957886
0.41764717
0.42567402
0.43364230
0.44155839
0.44944487
0.45726731
0.46504404
0.47277397
0.48046371
0.48810154
0.49568826
0.50322871
0.51073509
0.51817928
0.52558385
0.53293695
0.54024555
0.54752035
0.55473295
0.56190695
0.56903083
0.57611026
0.58313992
0.59013617
0.59708288
0.60398026
0.61083432
0.61763887
0.62440508
0.63112311
0.63779728
0.64442873
0.65101147
0.65756186
0.66405874
0.67051340
0.67692543
0.68329446
0.68961669
0.69589669
0.70213456
0.70833041
0.71447961
0.72058708
0.72665292
0.73267770
0.73866061
0.74459762
0.75048941
0.75633979
0.76215425
0.76792745
0.77365598
0.77934353
0.78499110
0.79059835
0.79616110
0.80168338
0.80716191
0.81260490
0.81800399
0.82336769
0.82868777
0.83396851
0.83920233
0.84440077
0.84956426
0.85468528
0.85976717
0.86480302
0.86980394
0.87477075
0.87969505
0.88457402
0.88942259
0.89422950
0.89899865
0.90372647
0.90841681
0.91307301
0.91768544
0.92226395
0.92680539
0.93130289
0.93576746
0.94019845
0.94458256
0.94893742
0.95325557
0.95753115
0.96177364
0.96597394
0.97014494
0.97427984
0.97837302
0.98243389
0.98645309
0.99044331
0.99439218
0.99830912
1.00218811
1.00603533
1.00984189
1.01361718
1.01735482
1.02106104
1.02472760
1.02836550
1.03196404
1.03553126
1.03906224
1.04256207
1.04602320
1.04944832
1.05284819
1.05620695
1.05953792
1.06283077
1.06608830
1.06932078
1.07251311
1.07567797
1.07880579
1.08189875
1.08496445
1.08799598
1.09099305
1.09396095
1.09689464
1.09979704
1.10266578
1.10550525
1.10831154
1.11108678
1.11383321
1.11654450
1.11922510
1.12187510
1.12449462
1.12708578
1.12964262
1.13216932
1.13466425
1.13713103
1.13956991
1.14197545
1.14435124
1.14669776
1.14901310
1.15130085
1.15355964
1.15578763
1.15798655
1.16015515
1.16229678
1.16440817
1.16649113
1.16854414
1.17057055
1.17256742
1.17453615
1.17647701
1.17838874
1.18027565
1.18213204
1.18396115
1.18576279
1.18753736
1.18928330
1.19100106
1.19269332
1.19435882
1.19599636
1.19760739
1.19919313
1.20075031
1.20228240
1.20378838
1.20526720
1.20672015
1.20814734
1.20954888
1.21092280
1.21227231
1.21359661
1.21489560
1.21616857
1.21741747
1.21864060
1.21983802
1.22101165
1.22215990
1.22328463
1.22438413
1.22545773
1.22650894
1.22753614
1.22853863
1.22951667
1.23047175
1.23140252
1.23231058
1.23319395
1.23405474
1.23489241
1.23570583
1.23649765
1.23726597
1.23801109
1.23873422
1.23943426
1.24011153
1.24076751
1.24140087
1.24201122
1.24260062
1.24316729
1.24371271
1.24423657
1.24473848
1.24521902
1.24567797
1.24611608
1.24653280
1.24692893
1.24730385
1.24765780
1.24799163
1.24830419
1.24859683
1.24886872
1.24912080
1.24935224
1.24956404
1.24975580
1.24992768
1.25008001
1.25021267
1.25032597
1.25041977
1.25049445
1.25054990
1.25058631
1.25060384
1.25060254
1.25058253
1.25054394
1.25048686
1.25041132
1.25031763
1.25020579
1.25007577
1.24992789
1.24976228
1.24957863
1.24937762
1.24915908
1.24892310
1.24866957
1.24839920
1.24811173
1.24780723
1.24748557
1.24714762
1.24679295
1.24642169
1.24603396
1.24562947
1.24520904
1.24477273
1.24432034
1.24385197
1.24336733
1.24286770
1.24235199
1.24182113
1.24127525
1.24071358
1.24013707
1.23954497
1.23893781
1.23831619
1.23767972
1.23702897
1.23636360
1.23568375
1.23498941
1.23428131
1.23355846
1.23282202
1.23207155
1.23130716
1.23052957
1.22973771
1.22893273
1.22811431
1.22728248
1.22643802
1.22557966
1.22470889
1.22382505
1.22292837
1.22201962
1.22109886
1.22016476
1.21921824
1.21825924
1.21728802
1.21630531
1.21531051
1.21430380
1.21328594
1.21225630
1.21121413
1.21016120
1.20909679
1.20802098
1.20693565
1.20583816
1.20472968
1.20361021
1.20248159
1.20134045
1.20018945
1.19902700
1.19785682
1.19667445
1.19548168
1.19427978
1.19306869
1.19184661
1.19061565
1.18937490
1.18812445
1.18686442
1.18559591
1.18431698
1.18302979
1.18173446
1.18042898
1.17911450
1.17779208
1.17646096
1.17512213
1.17377371
1.17241777
1.17105242
1.16967976
1.16830002
1.16691001
1.16551528
1.16411035
1.16269989
1.16127940
1.15985477
1.15842028
1.15697953
1.15553145
1.15407732
1.15261366
1.15114644
1.14966998
1.14818909
1.14670134
1.14520462
1.14370489
1.14219636
1.14068381
1.13916501
1.13763766
1.13610787
1.13456959
1.13302795
1.13148052
1.12992500
1.12836744
1.12680325
1.12523365
1.12366004
1.12208122
1.12049599
1.11890705
1.11731435
1.11571697
1.11411223
1.11250666
1.11089524
1.10928084
1.10765929
1.10603748
1.10441032
1.10277896
1.10114497
1.09950441
1.09786412
1.09621880
1.09456988
1.09291883
1.09126438
1.08960389
1.08794428
1.08628006
1.08461431
1.08294564
1.08127400
1.07959975
1.07792272
1.07624465
1.07456122
1.07287832
1.07119441
1.06950692
1.06781874
1.06612732
1.06443525
1.06274277
1.06104718
1.05935124
1.05765264
1.05595373
1.05425363
1.05255368
1.05085117
1.04914886
1.04744572
1.04574171
1.04403959
1.04233396
1.04062928
1.03892396
1.03721836
1.03551229
1.03380741
1.03210112
1.03039605
1.02869371
1.02698896
1.02528557
1.02358138
1.02187887
1.02017672
1.01847812
1.01677739
1.01507885
1.01338104
1.01168433
1.00998993
1.00829682
1.00660340
1.00491285
1.00322498
1.00153735
0.99985257
0.99817088
0.99648958
0.99480874
0.99313266
0.99145862
0.98978673
0.98811706
0.98645110
0.98478617
0.98312650
0.98146666
0.97981075
0.97815911
0.97650897
0.97486164
0.97322022
0.97158043
0.96994521
0.96831209
0.96668493
0.96505869
0.96343860
0.96182082
0.96020680
0.95859796
0.95699306
0.95539351
0.95379541
0.95220550
0.95061722
0.94903596
0.94745903
0.94588415
0.94431785
0.94275354
0.94119548
0.93964232
0.93809533
0.93655341
0.93501551
0.93348531
0.93195790
0.93043860
0.92892469
0.92741513
0.92591379
0.92441822
0.92292603
0.92144230
0.91996585
0.91849306
0.91702883
0.91557103
0.91411720
0.91267348
0.91123501
0.90980452
0.90837826
0.90696133
0.90555239
0.90414926
0.90275218
0.90136450
0.89998408
0.89861112
0.89724663
0.89588738
0.89453801
0.89319633
0.89186244
0.89053641
0.88921933
0.88790929
0.88660739
0.88531480
0.88403050
0.88275555
0.88148810
0.88023016
0.87898096
0.87774039
0.87650966
0.87528689
0.87407402
0.87287022
0.87167567
0.87049125
0.86931417
0.86814848
0.86699227
0.86584660
0.86470962
0.86358333
0.86246678
0.86136022
0.86026367
0.85917719
0.85810080
0.85703566
0.85598084
0.85493635
0.85390246
0.85287907
0.85186721
0.85086703
0.84987675
0.84889739
0.84792905
0.84697261
0.84602742
0.84509262
0.84417142
0.84326017
0.84236118
0.84147304
0.84059732
0.83973408
0.83888260
0.83804240
0.83721490
0.83640011
0.83559687
0.83480582
0.83402718
0.83326219
0.83250905
0.83176855
0.83104128
0.83032614
0.82962444
0.82893623
0.82826042
0.82759719
0.82694868
0.82631243
0.82568993
0.82508139
0.82448583
0.82390477
0.82333643
0.82278184
0.82224199
0.82171553
0.82120391
0.82070553
0.82022207
0.81975206
0.81929672
0.81885652
0.81843006
0.81801848
0.81762152
0.81723959
0.81687212
0.81651983
0.81618248
0.81586043
0.81555346
0.81526118
0.81498488
0.81472348
0.81447795
0.81424752
0.81403323
0.81383441
0.81365120
0.81348410
0.81333291
0.81319745
0.81307840
0.81297530
0.81288852
0.81281810
0.81276401
0.81272644
0.81270540
0.81270098
0.81271328
0.81274233
0.81278823
0.81285113
0.81293101
0.81302790
0.81314194
0.81327335
0.81342199
0.81358803
0.81377142
0.81397236
0.81419131
0.81442764
0.81468175
0.81495354
0.81524326
0.81555102
0.81587743
0.81622152
0.81658360
0.81696429
0.81736314
0.81778045
0.81821635
0.81867052
0.81914383
0.81963558
0.82014707
0.82067666
0.82122488
0.82179266
0.82237919
0.82298548
0.82361066
0.82425473
0.82491880
0.82560255
0.82630537
0.82702793
0.82777025
0.82853255
0.82931416
0.83011650
0.83093693
0.83177889
0.83264114
0.83352377
0.83442606
0.83534974
0.83629315
0.83725722
0.83824128
0.83924693
0.84027180
0.84131842
0.84238618
0.84347508
0.84458510
0.84571553
0.84686630
0.84803949
0.84923418
0.85045037
0.85168629
0.85294488
0.85422628
0.85552869
0.85685066
0.85819694
0.85956416
0.86095478
0.86236412
0.86379811
0.86525465
0.86673100
0.86823129
0.86975541
0.87129838
0.87286681
0.87445797
0.87606943
0.87770528
0.87936422
0.88104471
0.88275004
0.88447570
0.88622622
0.88800174
0.88979629
0.89161740
0.89345900
0.89532756
0.89721668
0.89913151
0.90106677
0.90302944
0.90501297
0.90702398
0.90905594
0.91111382
0.91319268
0.91529966
0.91742751
0.91958165
0.92175880
0.92396263
0.92618939
0.92844107
0.93071577
0.93301550
0.93534239
0.93769246
0.94006574
0.94246853
0.94489278
0.94734445
0.94981955
0.95231832
0.95484697
0.95739723
0.95997310
0.96257739
0.96520291
0.96785701
0.97053492
0.97324117
0.97597159
0.97872836
0.98150913
0.98432130
0.98715515
0.99001563
0.99290283
0.99581937
0.99875768
1.00172315
1.00471536
1.00773463
1.01078372
1.01385766
1.01695591
1.02008178
1.02323480
1.02641560
1.02962369
1.03285689
1.03612323
1.03941194
1.04272850
1.04607300
1.04944255
1.05284313
1.05626887
1.05972281
1.06320503
1.06671561
1.07025152
1.07381591
1.07741200
1.08103071
1.08468098
1.08836004
1.09206502
1.09580187
1.09956442
1.10335637
1.10717408
1.11102401
1.11490016
1.11880873
1.12274362
1.12670450
1.13069489
1.13471486
1.13876808
1.14284713
1.14695636
1.15109220
1.15526129
1.15945303
1.16367853
1.16793420
1.17222048
1.17653671
1.18088334
1.18525311
1.18965683
1.19409113
1.19855648
1.20304464
1.20757110
1.21212484
1.21670909
1.22132067
1.22596327
1.23064111
1.23534186
1.24007801
1.24484971
1.24964821
1.25447051
1.25932814
1.26422170
1.26913827
1.27409092
1.27906701
1.28408334
1.28913165
1.29419897
1.29931140
1.30444284
1.30961511
1.31482016
1.32004833
1.32531306
1.33060605
1.33593628
1.34128966
1.34668474
1.35210347
1.35755982
1.36304419
1.36856639
1.37411178
1.37970012
1.38531168
1.39096144
1.39663996
1.40235131
1.40809606
1.41386967
1.41968143
1.42552214
1.43140122
1.43730410
1.44324549
1.44922129
1.45522571
1.46126895
1.46734144
1.47344262
1.47958835
1.48575796
1.49196189
1.49820575
1.50447295
1.51078024
1.51711706
1.52349362
1.52989923
1.53633962
1.54282064
1.54932561
1.55586495
1.56243990
1.56904937
1.57569994
1.58237448
1.58908970
1.59583489
1.60261550
1.60943709
1.61628879
1.62317000
1.63008686
1.63703946
1.64402788
1.65105783
1.65811813
1.66520875
1.67234054
1.67950338
1.68669534
1.69392999
1.70120100
1.70850255
1.71583990
1.72321441
1.73062486
1.73807198
1.74554981
1.75307046
1.76062191
1.76821027
1.77583493
1.78349046
1.79118997
1.79891974
1.80668674
1.81449103
1.82233199
1.83020473
1.83812062
1.84606838
1.85405303
1.86207537
1.87013545
1.87823336
1.88635530
1.89452169
1.90272606
1.91096924
1.91924981
1.92756111
1.93590387
1.94429240
1.95271855
1.96118389
1.96968776
1.97821485
1.98678743
1.99540720
2.00405800
2.01274762
2.02146043
2.03021996
2.03902640
2.04785603
2.05673272
2.06564058
2.07459570
2.08357478
2.09260862
2.10167377
2.11076283
2.11990699
2.12909163
2.13829853
2.14755428
2.15684144
2.16617599
2.17555134
2.18494972
2.19439575
2.20387415
2.21340127
2.22296863
2.23256765
2.24220699
2.25187798
2.26160695
2.27135006
2.28115137
2.29098448
2.30085918
2.31076478
2.32072917
2.33070832
2.34074557
2.35081476
2.36092593
2.37106905
2.38127085
2.39148713
2.40175299
2.41207049
2.42241073
2.43280182
2.44322409
2.45368888
2.46420486
2.47474349
2.48534306
2.49596528
2.50662938
2.51734513
2.52808443
2.53886476
2.54969702
2.56057150
2.57147937
2.58242855
2.59342010
2.60445510
2.61552155
2.62663153
2.63779323
2.64898850
2.66021628
2.67149707
2.68281970
2.69417598
2.70557521
2.71701746
2.72849235
2.74002082
2.75159254
2.76319699
2.77484475
2.78653588
2.79825978
2.81002711
2.82184981
2.83371510
2.84561328
2.85754539
2.86953107
2.88154965
2.89361320
2.90572070
2.91787110
2.93006670
2.94229530
2.95457813
2.96689514
2.97925644
2.99166098
3.00409972
3.01659430
3.02912201
3.04169429
3.05431122
3.06697286
3.07967929
3.09242009
3.10521628
3.11804572
3.13092016
3.14381720
3.15678176
3.16979272
3.18283582
3.19592538
3.20905909
3.22223941
3.23546401
3.24871106
3.26201578
3.27536489
3.28876090
3.30220268
3.31567792
3.32919898
3.34276593
3.35639132
3.37005030
3.38373023
3.39748140
3.41126615
3.42510983
3.43897568
3.45289934
3.46685660
3.48086158
3.49491177
3.50902149
3.52315323
3.53734334
3.55156845
3.56584033
3.58015774
3.59453659
3.60893599
3.62339433
3.63787576
3.65242832
3.66702948
3.68165103
3.69633332
3.71103588
3.72581294
3.74063752
3.75548369
3.77040208
3.78534340
3.80034480
3.81536765
3.83046462
3.84558161
3.86077442
3.87598863
3.89126348
3.90655961
3.92193211
3.93732302
3.95276351
3.96828086
3.98380362
3.99940202
4.01503594
4.03070389
4.04644939
4.06221448
4.07804282
4.09389061
4.10980179
4.12576181
4.14177074
4.15780043
4.17392219
4.19004834
4.20623997
4.22247927
4.23876780
4.25509203
4.27145038
4.28788690
4.30435766
4.32086415
4.33742010
4.35405485
4.37071005
4.38739943
4.40415401
4.42097243
4.43780800
4.45469655
4.47163504
4.48860775
4.50564626
4.52275077
4.53987376
4.55704853
4.57427196
4.59154572
4.60885537
4.62622993
4.64363882
4.66109984
4.67862609
4.69618838
4.71379974
4.73144710
4.74914357
4.76689250
4.78469233
4.80254313
4.82044328
4.83837950
4.85638353
4.87442201
4.89251169
4.91065264
4.92882800
4.94707167
4.96534977
4.98367933
5.00206213
5.02049480
5.03896190
5.05748236
5.07605279
5.09469236
5.11336818
5.13209416
5.15085633
5.16968627
5.18853483
5.20745305
5.22642165
5.24544423
5.26451910
5.28364454
5.30278836
5.32200243
5.34126896
5.36058801
5.37995966
5.39934766
5.41882460
5.43833608
5.45790033
5.47750089
5.49717082
5.51687527
5.53663450
5.55644489
5.57630835
5.59620816
5.61617791
5.63620281
5.65624346
5.67635428
5.69652037
5.71672096
5.73699206
5.75731864
5.77766067
5.79809261
5.81854183
5.83906395
5.85963990
5.88023102
5.90091469
5.92161542
5.94238760
5.96319427
5.98407456
6.00498938
6.02596031
6.04696374
6.06806096
6.08917490
6.11036108
6.13156381
6.15285892
6.17417052
6.19557483
6.21699556
6.23848911
6.25999892
6.28158370
6.30322330
6.32491778
6.34666516
6.36844906
6.39026943
6.41218188
6.43413092
6.45611647
6.47817588
6.50026975
6.52241890
6.54462338
6.56688536
6.58917966
6.61157160
6.63395790
6.65641874
