corrn_curve_quadraticv3
1.55499071
1.55442910
1.55386623
1.55330366
1.55273984
1.55217636
1.55161236
1.55104792
1.55048296
1.54991753
1.54935243
1.54878608
1.54822004
1.54765269
1.54708570
1.54651822
1.54595027
1.54538184
1.54481372
1.54424434
1.54367532
1.54310499
1.54253579
1.54196530
1.54139437
1.54082293
1.54025101
1.53967945
1.53910662
1.53853411
1.53796113
1.53738767
1.53681374
1.53623934
1.53566526
1.53508991
1.53451492
1.53393946
1.53336269
1.53278625
1.53220937
1.53163283
1.53105497
1.53047668
1.52989871
1.52932028
1.52874138
1.52816116
1.52758216
1.52700185
1.52642106
1.52584065
1.52525892
1.52467753
1.52409571
1.52351343
1.52293063
1.52234740
1.52176366
1.52117950
1.52059653
1.52001138
1.51942663
1.51884140
1.51825489
1.51766958
1.51708295
1.51649671
1.51590914
1.51532193
1.51473428
1.51414617
1.51355756
1.51296851
1.51237901
1.51178985
1.51119937
1.51060932
1.51001877
1.50942776
1.50883545
1.50824433
1.50765196
1.50705908
1.50646573
1.50587280
1.50528022
1.50468548
1.50409115
1.50349636
1.50290106
1.50230617
1.50170998
1.50111416
1.50051793
1.49992075
1.49932354
1.49872631
1.49812778
1.49753007
1.49693145
1.49633282
1.49573284
1.49513328
1.49453321
1.49393229
1.49333178
1.49273078
1.49212980
1.49152787
1.49092508
1.49032267
1.48971985
1.48911697
1.48851319
1.48790894
1.48730468
1.48670001
1.48609523
1.48549004
1.48488439
1.48427738
1.48367126
1.48306424
1.48245716
1.48185011
1.48124212
1.48063416
1.48002569
1.47941682
1.47880744
1.47819806
1.47758776
1.47697706
1.47636630
1.47575555
1.47514388
1.47453221
1.47392008
1.47330795
1.47269486
1.47208182
1.47146919
1.47085524
1.47024124
1.46962683
1.46901193
1.46839661
1.46778080
1.46716498
1.46654876
1.46593204
1.46531486
1.46469769
1.46408052
1.46346286
1.46284433
1.46222534
1.46160636
1.46098693
1.46036792
1.45974759
1.45912721
1.45850643
1.45788516
1.45726435
1.45664222
1.45602005
1.45539742
1.45477440
1.45415175
1.45352824
1.45290428
1.45228080
1.45165593
1.45103109
1.45040579
1.44978046
1.44915473
1.44852808
1.44790187
1.44727474
1.44664768
1.44602059
1.44539212
1.44476460
1.44413575
1.44350640
1.44287754
1.44224776
1.44161753
1.44098780
1.44035668
1.43972648
1.43909446
1.43846341
1.43783140
1.43719946
1.43656612
1.43593371
1.43529991
1.43466661
1.43403244
1.43339873
1.43276361
1.43212901
1.43149300
1.43085798
1.43022157
1.42958566
1.42894835
1.42831203
1.42767474
1.42703657
1.42639892
1.42576030
1.42512176
1.42448321
1.42384330
1.42320386
1.42256446
1.42192365
1.42128337
1.42064264
1.42000055
1.41935942
1.41871737
1.41807487
1.41743237
1.41678947
1.41614661
1.41550235
1.41485856
1.41421438
1.41357020
1.41292465
1.41227959
1.41163408
1.41098814
1.41034131
1.40969497
1.40904819
1.40840098
1.40775381
1.40710571
1.40645717
1.40580868
1.40515976
1.40451083
1.40386152
1.40321172
1.40256153
1.40191085
1.40126027
1.40060827
1.39995677
1.39930533
1.39865295
1.39800068
1.39734792
1.39669522
1.39604159
1.39538801
1.39473395
1.39407951
1.39342462
1.39276980
1.39211404
1.39145830
1.39080266
1.39014604
1.38948954
1.38883255
1.38817517
1.38751731
1.38686001
1.38620178
1.38554312
1.38488402
1.38422498
1.38356551
1.38290511
1.38224477
1.38158501
1.38092430
1.38026312
1.37960155
1.37893955
1.37827706
1.37761566
1.37695236
1.37628958
1.37562592
1.37496178
1.37429872
1.37363421
1.37296933
1.37230396
1.37163917
1.37097345
1.37030730
1.36964167
1.36897517
1.36830772
1.36764131
1.36697351
1.36630574
1.36563810
1.36496946
1.36430045
1.36363147
1.36296206
1.36229227
1.36162251
1.36095181
1.36028170
1.35961066
1.35893867
1.35826780
1.35759546
1.35692368
1.35625101
1.35557842
1.35490489
1.35423139
1.35355804
1.35288369
1.35220948
1.35153428
1.35085968
1.35018419
1.34950874
1.34883338
1.34815656
1.34748035
1.34680319
1.34612613
1.34544864
1.34477125
1.34409338
1.34341409
1.34273595
1.34205633
1.34137728
1.34069833
1.34001744
1.33933764
1.33865741
1.33797577
1.33729522
1.33661373
1.33593134
1.33524952
1.33456775
1.33388409
1.33320152
1.33251849
1.33183508
1.33115072
1.33046647
1.32978227
1.32909770
1.32841165
1.32772671
1.32704082
1.32635509
1.32566889
1.32498121
1.32429474
1.32360728
1.32291992
1.32223214
1.32154447
1.32085532
1.32016628
1.31947736
1.31878795
1.31809872
1.31740853
1.31671840
1.31602791
1.31533694
1.31464615
1.31395381
1.31326217
1.31257006
1.31187754
1.31118465
1.31049182
1.30979857
1.30910491
1.30841083
1.30771687
1.30702249
1.30632769
1.30563242
1.30493679
1.30424128
1.30354584
1.30285004
1.30215322
1.30145605
1.30075894
1.30006147
1.29936354
1.29866518
1.29796695
1.29726836
1.29656985
1.29587037
1.29517102
1.29447072
1.29377054
1.29306995
1.29236998
1.29166910
1.29096727
1.29026551
1.28956339
1.28886189
1.28815949
1.28745608
1.28675285
1.28605025
1.28534614
1.28464217
1.28393778
1.28323353
1.28252886
1.28182329
1.28111830
1.28041240
1.27970608
1.27900046
1.27829382
1.27758627
1.27687996
1.27617209
1.27546385
1.27475626
1.27404776
1.27333989
1.27263051
1.27192078
1.27121169
1.27050163
1.26979227
1.26908139
1.26837122
1.26766007
1.26694908
1.26623712
1.26552586
1.26481358
1.26410150
1.26338846
1.26267607
1.26196221
1.26124900
1.26053489
1.25982086
1.25910593
1.25839165
1.25767752
1.25696131
1.25624637
1.25552990
1.25481414
1.25409854
1.25338085
1.25266444
1.25194649
1.25122921
1.25051214
1.24979354
1.24907504
1.24835675
1.24763744
1.24691834
1.24619879
1.24547939
1.24475908
1.24403887
1.24331825
1.24259667
1.24187581
1.24115455
1.24043289
1.23971082
1.23898778
1.23826547
1.23754276
1.23682016
1.23609664
1.23537214
1.23464833
1.23392417
1.23319955
1.23247510
1.23174974
1.23102391
1.23029825
1.22957225
1.22884636
1.22811949
1.22739280
1.22666570
1.22593878
1.22521088
1.22448310
1.22375497
1.22302645
1.22229804
1.22156813
1.22083898
1.22010936
1.21937941
1.21864900
1.21791882
1.21718876
1.21645772
1.21572629
1.21499503
1.21426338
1.21353080
1.21279887
1.21206601
1.21133276
1.21059969
1.20986622
1.20913235
1.20839809
1.20766453
1.20693005
1.20619511
1.20545983
1.20472468
1.20398861
1.20325266
1.20251691
1.20178023
1.20104367
1.20030614
1.19956879
1.19883222
1.19809408
1.19735555
1.19661720
1.19587899
1.19513985
1.19440091
1.19366098
1.19292177
1.19218164
1.19144111
1.19070131
1.18995993
1.18921881
1.18847782
1.18773585
1.18699413
1.18625249
1.18550939
1.18476643
1.18402426
1.18328052
1.18253756
1.18179362
1.18104922
1.18030509
1.17956056
1.17881617
1.17807086
1.17732574
1.17657958
1.17583369
1.17508793
1.17434065
1.17359471
1.17284718
1.17210046
1.17135221
1.17060524
1.16985680
1.16910851
1.16836037
1.16761129
1.16686243
1.16611257
1.16536353
1.16461289
1.16386300
1.16311333
1.16236212
1.16161112
1.16085967
1.16010850
1.15935688
1.15860426
1.15785246
1.15710033
1.15634715
1.15559418
1.15484143
1.15408708
1.15333355
1.15257963
1.15182533
1.15107003
1.15031549
1.14956063
1.14880532
1.14804907
1.14729366
1.14653779
1.14578154
1.14502496
1.14426732
1.14350997
1.14275278
1.14199520
1.14123723
1.14047827
1.13972014
1.13896102
1.13820212
1.13744345
1.13668378
1.13592427
1.13516383
1.13440300
1.13364240
1.13288142
1.13212060
1.13135940
1.13059787
1.12983590
1.12907416
1.12831148
1.12754897
1.12678608
1.12602280
1.12525976
1.12449577
1.12373190
1.12296771
1.12220313
1.12143878
1.12067344
1.11990833
1.11914278
1.11837690
1.11761126
1.11684580
1.11607934
1.11531255
1.11454532
1.11377778
1.11301041
1.11224265
1.11147458
1.11070669
1.10993841
1.10916914
1.10840010
1.10763068
1.10686088
1.10609195
1.10532196
1.10455164
1.10378095
1.10301106
1.10223960
1.10146833
1.10069611
1.09992534
1.09915299
1.09838020
1.09760772
1.09683542
1.09606212
1.09528907
1.09451564
1.09374183
1.09296764
1.09219371
1.09141876
1.09064407
1.08986963
1.08909419
1.08831836
1.08754273
1.08676678
1.08599102
1.08521432
1.08443781
1.08366035
1.08288308
1.08210608
1.08132749
1.08055036
1.07977159
1.07899371
1.07821419
1.07743620
1.07665656
1.07587718
1.07509742
1.07431793
1.07353678
1.07275711
1.07197585
1.07119550
1.07041470
1.06963232
1.06885142
1.06806892
1.06728727
1.06650524
1.06572163
1.06493949
1.06415570
1.06337282
1.06258957
1.06180472
1.06102130
1.06023692
1.05945218
1.05866770
1.05788285
1.05709698
1.05631139
1.05552600
1.05474031
1.05395295
1.05316709
1.05238022
1.05159368
1.05080541
1.05001871
1.04923106
1.04844298
1.04765516
1.04686569
1.04607778
1.04528886
1.04449956
1.04371055
1.04292116
1.04213010
1.04134062
1.04055006
1.03975984
1.03896926
1.03817824
1.03738691
1.03659515
1.03580374
1.03501058
1.03421843
1.03342650
1.03263354
1.03184087
1.03104725
1.03025384
1.02946072
1.02866657
1.02787265
1.02707784
1.02628318
1.02548822
1.02469354
1.02389785
1.02310238
1.02230660
1.02151046
1.02071520
1.01991826
1.01912168
1.01832466
1.01752734
1.01672959
1.01593213
1.01513372
1.01433553
1.01353823
1.01273937
1.01194068
1.01114110
1.01034174
1.00954195
1.00874319
1.00794273
1.00714258
1.00634199
1.00554111
1.00474046
1.00393951
1.00313746
1.00233578
1.00153434
1.00073193
0.99992976
0.99912789
0.99832499
0.99752106
0.99671810
0.99591478
0.99511109
0.99430704
0.99350330
0.99269852
0.99189472
0.99108922
0.99028396
0.98947907
0.98867316
0.98786681
0.98706150
0.98625510
0.98544901
0.98464195
0.98383581
0.98302802
0.98222116
0.98141326
0.98060500
0.97979705
0.97898874
0.97818074
0.97737104
0.97656299
0.97575324
0.97494448
0.97413529
0.97332445
0.97251529
0.97170434
0.97089378
0.97008286
0.96927219
0.96846116
0.96764916
0.96683809
0.96602531
0.96521359
0.96440144
0.96358826
0.96277607
0.96196353
0.96114927
0.96033602
0.95952308
0.95870843
0.95789471
0.95708070
0.95626497
0.95545094
0.95463579
0.95382104
0.95300449
0.95218902
0.95137382
0.95055757
0.94974035
0.94892407
0.94810744
0.94729052
0.94647386
0.94565547
0.94483810
0.94402037
0.94320229
0.94238385
0.94156568
0.94074653
0.93992702
0.93910785
0.93828833
0.93746906
0.93664883
0.93582886
0.93500860
0.93418793
0.93336758
0.93254626
0.93172521
0.93090381
0.93008212
0.92926070
0.92843754
0.92761542
0.92679294
0.92597080
0.92514761
0.92432477
0.92350150
0.92267795
0.92185405
0.92102979
0.92020511
0.91938085
0.91855623
0.91773119
0.91690587
0.91608013
0.91525473
0.91442974
0.91360364
0.91277719
0.91195039
0.91112393
0.91029719
0.90946934
0.90864316
0.90781530
0.90698779
0.90615922
0.90533101
0.90450315
0.90367487
0.90284561
0.90201670
0.90118807
0.90035846
0.89952843
0.89869812
0.89786880
0.89703843
0.89620777
0.89537740
0.89454598
0.89371492
0.89288421
0.89205244
0.89121970
0.89038858
0.88955584
0.88872332
0.88789123
0.88705808
0.88622593
0.88539209
0.88455790
0.88372478
0.88289054
0.88205736
0.88122249
0.88038862
0.87955306
0.87871778
0.87788358
0.87704769
0.87621209
0.87537614
0.87454056
0.87370392
0.87286764
0.87203102
0.87119477
0.87035817
0.86951980
0.86868315
0.86784481
0.86700754
0.86616850
0.86533119
0.86449282
0.86365346
0.86281512
0.86197650
0.86113604
0.86029738
0.85945701
0.85861695
0.85777726
0.85693650
0.85609613
0.85525540
0.85441506
0.85357293
0.85273190
0.85189052
0.85104809
0.85020603
0.84936427
0.84852224
0.84767916
0.84683637
0.84599332
0.84515057
0.84430749
0.84346269
0.84261892
0.84177487
0.84093114
0.84008707
0.83924266
0.83839653
0.83755143
0.83670665
0.83586094
0.83501548
0.83416974
0.83332367
0.83247798
0.83163122
0.83078478
0.82993662
0.82908957
0.82824283
0.82739510
0.82654769
0.82569928
0.82485119
0.82400348
0.82315479
0.82230568
0.82145696
0.82060790
0.81975857
0.81890883
0.81805949
0.81720908
0.81636045
0.81551009
0.81465939
0.81380835
0.81295771
0.81210593
0.81125461
0.81040296
0.80955163
0.80869930
0.80784803
0.80699576
0.80614308
0.80529006
0.80443678
0.80358383
0.80273127
0.80187765
0.80102368
0.80016945
0.79931622
0.79846198
0.79760675
0.79675177
0.79589800
0.79504242
0.79418724
0.79333099
0.79247655
0.79162037
0.79076378
0.78990841
0.78905189
0.78819437
0.78733866
0.78648113
0.78562335
0.78476664
0.78390885
0.78305073
0.78219310
0.78133431
0.78047667
0.77961796
0.77875817
0.77790021
0.77704049
0.77618194
0.77532156
0.77446233
0.77360196
0.77274282
0.77188185
0.77102197
0.77016034
0.76929979
0.76843824
0.76757778
0.76671549
0.76585437
0.76499224
0.76413045
0.76326758
0.76240513
0.76154235
0.76067999
0.75981729
0.75895352
0.75809016
0.75722723
0.75636246
0.75549879
0.75463411
0.75376985
0.75290594
0.75204027
0.75117570
0.75031087
0.74944489
0.74858016
0.74771427
0.74684881
0.74598233
0.74511621
0.74424976
0.74338373
0.74251587
0.74164918
0.74078217
0.73991483
0.73904641
0.73817917
0.73731152
0.73644363
0.73557541
0.73470609
0.73383714
0.73296869
0.73209984
0.73123073
0.73036123
0.72949147
0.72862207
0.72775089
0.72688084
0.72601045
0.72513975
0.72426947
0.72339811
0.72252718
0.72165593
0.72078435
0.71991244
0.71904097
0.71816918
0.71729629
0.71642454
0.71555177
0.71467867
0.71380593
0.71293218
0.71205888
0.71118517
0.71031190
0.70943761
0.70856370
0.70768876
0.70681419
0.70594007
0.70506562
0.70419085
0.70331498
0.70243964
0.70156389
0.70068852
0.69981212
0.69893695
0.69806068
0.69718408
0.69630709
0.69542985
0.69455228
0.69367586
0.69279843
0.69192066
0.69104250
0.69016557
0.68928684
0.68840848
0.68752988
0.68665165
0.68577310
0.68489346
0.68401504
0.68313553
0.68225491
0.68137483
0.68049583
0.67961580
0.67873468
0.67785479
0.67697380
0.67609397
0.67521234
0.67433039
0.67345037
0.67256778
0.67168712
0.67080466
0.66992181
0.66904019
0.66815756
0.66727530
0.66639194
0.66550983
0.66462591
0.66374316
0.66285931
0.66197592
0.66109142
0.66020818
0.65932305
0.65843916
0.65755417
0.65666957
0.65578473
0.65489958
0.65401480
0.65312901
0.65224360
0.65135717
0.65047191
0.64958563
0.64869895
0.64781274
0.64692550
0.64603866
0.64515228
0.64426409
0.64337708
0.64248976
0.64160132
0.64071415
0.63982587
0.63893799
0.63804908
0.63716064
0.63627189
0.63538203
0.63449335
0.63360444
0.63271513
0.63182559
0.63093494
0.63004548
0.62915499
0.62826489
0.62737449
0.62648305
0.62559201
0.62470145
0.62381057
0.62291939
0.62202788
0.62113535
0.62024321
0.61935148
0.61845880
0.61756644
0.61667464
0.61578173
0.61488851
0.61399569
0.61310263
0.61220919
0.61131550
0.61042151
0.60952792
0.60863330
0.60773908
0.60684456
0.60594979
0.60505544
0.60415997
0.60326499
0.60236970
0.60147410
0.60057826
0.59968275
0.59878629
0.59789016
0.59699379
0.59609712
0.59520013
0.59430283
0.59340675
0.59250963
0.59161220
0.59071437
0.58981632
0.58891876
0.58802162
0.58712336
0.58622486
0.58532598
0.58442679
0.58352890
0.58262997
0.58172984
0.58083021
0.57993027
0.57903164
0.57813189
0.57723102
0.57633146
0.57543078
0.57453060
0.57362930
0.57272923
0.57182731
0.57092590
0.57002571
0.56912368
0.56822125
0.56732022
0.56641799
0.56551626
0.56461349
0.56371034
0.56280850
0.56190562
0.56100316
0.56009959
0.55919570
0.55829233
0.55738864
0.55648546
0.55558035
0.55467737
0.55377245
0.55286805
0.55196325
0.55105905
0.55015290
0.54924882
0.54834288
0.54743745
0.54653163
0.54562632
0.54471916
0.54381406
0.54290791
0.54200056
0.54109455
0.54018740
0.53928086
0.53837392
0.53746586
0.53655914
0.53565047
0.53474313
0.53383549
0.53292673
0.53201922
0.53111149
0.53020263
0.52929347
0.52838474
0.52747579
0.52656654
0.52565690
0.52474787
0.52383844
0.52292797
0.52201794
0.52110843
0.52019780
0.51928694
0.51837652
0.51746580
0.51655477
0.51564427
0.51473264
0.51382070
0.51290929
0.51199758
0.51108557
0.51017408
0.50926229
0.50834928
0.50743605
0.50652336
0.50561110
0.50469780
0.50378503
0.50287187
0.50195841
0.50104473
0.50013067
0.49921714
0.49830256
0.49738842
0.49647399
0.49555933
0.49464513
0.49372979
0.49281499
0.49189988
0.49098447
0.49006877
0.48915276
0.48823720
0.48732060
0.48640452
0.48548815
0.48457307
0.48365610
0.48273874
0.48182201
0.48090489
0.47998755
0.47906984
0.47815190
0.47723527
0.47631749
0.47539950
0.47448113
0.47356246
0.47264433
0.47172590
0.47080717
0.46988730
0.46896798
0.46805004
0.46713012
0.46621074
0.46529022
0.46437101
0.46345074
0.46253101
0.46161090
0.46069058
0.45976912
0.45884897
0.45792776
0.45700701
0.45608596
0.45516470
0.45424222
0.45332113
0.45239898
0.45147806
0.45055532
0.44963219
0.44871047
0.44778760
0.44686613
0.44594267
0.44501892
0.44409648
0.44317221
0.44224918
0.44132509
0.44040232
0.43947764
0.43855436
0.43762909
0.43670514
0.43578012
0.43485643
0.43393074
0.43300655
0.43208198
0.43115541
0.43023110
0.42930487
0.42837912
0.42745393
0.42652674
0.42560096
0.42467404
0.42374853
0.42282187
0.42189491
0.42096767
0.42004175
0.41911306
0.41818665
0.41725900
0.41633115
0.41540300
0.41447532
0.41354822
0.41261919
0.41169073
0.41076275
0.40983447
0.40890427
0.40797541
0.40704712
0.40611768
0.40518717
0.40425817
0.40332872
0.40239897
0.40146979
0.40053945
0.39960797
0.39867791
0.39774748
0.39681685
0.39588592
0.39495548
0.39402397
0.39309303
0.39216172
0.39122934
0.39029745
0.38936535
0.38843374
0.38750193
0.38656974
0.38563726
0.38470449
0.38377152
0.38283903
0.38190539
0.38097233
0.38003898
0.37910534
0.37817228
0.37723806
0.37630442
0.37537049
0.37443619
0.37350168
0.37256775
0.37163345
0.37069895
0.36976329
0.36882812
0.36789276
0.36695788
0.36602194
0.36508736
0.36415163
0.36321569
0.36227938
0.36134278
0.36040598
0.35947056
0.35853397
0.35759709
0.35665993
0.35572248
0.35478649
0.35384847
0.35291103
0.35197331
0.35103609
0.35009779
0.34916008
0.34822200
0.34728372
0.34634516
0.34540709
0.34446796
0.34352844
0.34259040
0.34165129
0.34071179
0.33977290
0.33883292
0.33789257
0.33695370
0.33601287
0.33507343
0.33413282
0.33319192
0.33225250
0.33131104
0.33037097
0.32942981
0.32848926
0.32754754
0.32660641
0.32566492
0.32472411
0.32378125
0.32283978
0.32189724
0.32095609
0.32001298
0.31907127
0.31812759
0.31718530
0.31624194
0.31529998
0.31435685
0.31341344
0.31246974
0.31152585
0.31058247
0.30963961
0.30869487
0.30775065
0.30680694
0.30586215
0.30491797
0.30397350
0.30302876
0.30208364
0.30113922
0.30019274
0.29924855
0.29830329
