corrn_curve_cubic
0.19070515
0.19042379
0.19014355
0.18986286
0.18958290
0.18930329
0.18902399
0.18874544
0.18846723
0.18818895
0.18791140
0.18763420
0.18735733
0.18708081
0.18680501
0.18652916
0.18625364
0.18597884
0.18570438
0.18543028
0.18515649
0.18488306
0.18460995
0.18433719
0.18406515
0.18379345
0.18352169
0.18325106
0.18297998
0.18270962
0.18244000
0.18217033
0.18190136
0.18163236
0.18136409
0.18109614
0.18082855
0.18056166
0.18029474
0.18002814
0.17976227
0.17949637
0.17923117
0.17896632
0.17870180
0.17843761
0.17817377
0.17791027
0.17764749
0.17738466
0.17712292
0.17686077
0.17659932
0.17633823
0.17607784
0.17581743
0.17555734
0.17529797
0.17503895
0.17478025
0.17452152
0.17426388
0.17400620
0.17374886
0.17349223
0.17323557
0.17297962
0.17272399
0.17246872
0.17221379
0.17195918
0.17170493
0.17145137
0.17119815
0.17094492
0.17069238
0.17044017
0.17018833
0.16993680
0.16968562
0.16943514
0.16918499
0.16893484
0.16868536
0.16843624
0.16818746
0.16793937
0.16769090
0.16744349
0.16719607
0.16694933
0.16670295
0.16645689
0.16621100
0.16596564
0.16572078
0.16547626
0.16523209
0.16498841
0.16474509
0.16450193
0.16425947
0.16401682
0.16377504
0.16353358
0.16329248
0.16305171
0.16281146
0.16257137
0.16233179
0.16209272
0.16185384
0.16161546
0.16137742
0.16113972
0.16090235
0.16066551
0.16042900
0.16019284
0.15995700
0.15972151
0.15948687
0.15925224
0.15901796
0.15878399
0.15855056
0.15831745
0.15808468
0.15785226
0.15762035
0.15738894
0.15715771
0.15692699
0.15669643
0.15646639
0.15623669
0.15600765
0.15577864
0.15555013
0.15532194
0.15509412
0.15486695
0.15463981
0.15441316
0.15418687
0.15396123
0.15373561
0.15351051
0.15328573
0.15306161
0.15283753
0.15261395
0.15239085
0.15216795
0.15194538
0.15172366
0.15150178
0.15128039
0.15105969
0.15083915
0.15061880
0.15039927
0.15017975
0.14996090
0.14974208
0.14952408
0.14930609
0.14908845
0.14887147
0.14865467
0.14843837
0.14822242
0.14800695
0.14779152
0.14757691
0.14736230
0.14714838
0.14693446
0.14672122
0.14650814
0.14629573
0.14608351
0.14587178
0.14566023
0.14544918
0.14523847
0.14502827
0.14481840
0.14460872
0.14439970
0.14419086
0.14398250
0.14377450
0.14356669
0.14335952
0.14315284
0.14294606
0.14274006
0.14253441
0.14232881
0.14212400
0.14191937
0.14171495
0.14151115
0.14130786
0.14110476
0.14090185
0.14069958
0.14049766
0.14029606
0.14009467
0.13989393
0.13969351
0.13949345
0.13929387
0.13909435
0.13889545
0.13869689
0.13849868
0.13830096
0.13810330
0.13790627
0.13770958
0.13751336
0.13731735
0.13712184
0.13692666
0.13673196
0.13653748
0.13634333
0.13614966
0.13595635
0.13576336
0.13557088
0.13537873
0.13518692
0.13499545
0.13480449
0.13461385
0.13442355
0.13423360
0.13404412
0.13385487
0.13366608
0.13347764
0.13328969
0.13310195
0.13291467
0.13272775
0.13254115
0.13235533
0.13216944
0.13198402
0.13179894
0.13161436
0.13142997
0.13124606
0.13106249
0.13087927
0.13069667
0.13051427
0.13033222
0.13015050
0.12996913
0.12978825
0.12960783
0.12942763
0.12924790
0.12906839
0.12888948
0.12871079
0.12853244
0.12835456
0.12817716
0.12799996
0.12782313
0.12764663
0.12747072
0.12729504
0.12711970
0.12694484
0.12677032
0.12659601
0.12642230
0.12624881
0.12607579
0.12590324
0.12573078
0.12555880
0.12538741
0.12521611
0.12504541
0.12487492
0.12470479
0.12453523
0.12436579
0.12419693
0.12402829
0.12386025
0.12369230
0.12352494
0.12335781
0.12319126
0.12302481
0.12285896
0.12269320
0.12252815
0.12236321
0.12219872
0.12203459
0.12187092
0.12170747
0.12154461
0.12138185
0.12121968
0.12105797
0.12089636
0.12073522
0.12057443
0.12041410
0.12025423
0.12009447
0.11993528
0.11977646
0.11961772
0.11945970
0.11930201
0.11914443
0.11898743
0.11883090
0.11867448
0.11851863
0.11836312
0.11820796
0.11805303
0.11789868
0.11774456
0.11759100
0.11743746
0.11728460
0.11713207
0.11697991
0.11682785
0.11667648
0.11652545
0.11637466
0.11622443
0.11607444
0.11592468
0.11577549
0.11562653
0.11547814
0.11532998
0.11518228
0.11503482
0.11488791
0.11474102
0.11459481
0.11444882
0.11430330
0.11415812
0.11401340
0.11386890
0.11372486
0.11358118
0.11343783
0.11329493
0.11315227
0.11301006
0.11286820
0.11272669
0.11258562
0.11244490
0.11230442
0.11216449
0.11202481
0.11188547
0.11174657
0.11160803
0.11147004
0.11133218
0.11119477
0.11105771
0.11092099
0.11078462
0.11064869
0.11051300
0.11037798
0.11024309
0.11010854
0.10997444
0.10984069
0.10970728
0.10957431
0.10944170
0.10930932
0.10917739
0.10904581
0.10891477
0.10878397
0.10865342
0.10852332
0.10839375
0.10826435
0.10813537
0.10800685
0.10787856
0.10775063
0.10762313
0.10749609
0.10736927
0.10724282
0.10711690
0.10699113
0.10686590
0.10674092
0.10661627
0.10649218
0.10636832
0.10624473
0.10612175
0.10599893
0.10587665
0.10575461
0.10563302
0.10551168
0.10539068
0.10527021
0.10515000
0.10503022
0.10491070
0.10479171
0.10467296
0.10455466
0.10443661
0.10431899
0.10420172
0.10408488
0.10396839
0.10385216
0.10373644
0.10362089
0.10350587
0.10339110
0.10327686
0.10316296
0.10304923
0.10293602
0.10282307
0.10271064
0.10259855
0.10248664
0.10237524
0.10226427
0.10215348
0.10204320
0.10193328
0.10182360
0.10171436
0.10160555
0.10149708
0.10138887
0.10128109
0.10117375
0.10106666
0.10095992
0.10085360
0.10074764
0.10064210
0.10053674
0.10043188
0.10032746
0.10022329
0.10011956
0.10001617
0.09991297
0.09981026
0.09970798
0.09960606
0.09950447
0.09940323
0.09930234
0.09920171
0.09910158
0.09900180
0.09890236
0.09880327
0.09870461
0.09860629
0.09850830
0.09841067
0.09831339
0.09821652
0.09812000
0.09802382
0.09792798
0.09783258
0.09773743
0.09764271
0.09754834
0.09745438
0.09736070
0.09726743
0.09717451
0.09708193
0.09698970
0.09689788
0.09680634
0.09671522
0.09662458
0.09653422
0.09644414
0.09635446
0.09626514
0.09617615
0.09608759
0.09599930
0.09591156
0.09582403
0.09573684
0.09565001
0.09556358
0.09547757
0.09539183
0.09530650
0.09522146
0.09513689
0.09505261
0.09496867
0.09488513
0.09480201
0.09471910
0.09463661
0.09455447
0.09447279
0.09439139
0.09431034
0.09422970
0.09414934
0.09406939
0.09398985
0.09391053
0.09383161
0.09375317
0.09367501
0.09359713
0.09351972
0.09344259
0.09336594
0.09328956
0.09321359
0.09313791
0.09306257
0.09298764
0.09291305
0.09283887
0.09276497
0.09269148
0.09261833
0.09254558
0.09247307
0.09240107
0.09232930
0.09225799
0.09218692
0.09211630
0.09204597
0.09197610
0.09190657
0.09183728
0.09176850
0.09169990
0.09163181
0.09156395
0.09149655
0.09142954
0.09136278
0.09129641
0.09123044
0.09116477
0.09109949
0.09103461
0.09096997
0.09090578
0.09084192
0.09077833
0.09071522
0.09065246
0.09058994
0.09052787
0.09046615
0.09040481
0.09034373
0.09028309
0.09022279
0.09016289
0.09010324
0.09004397
0.08998511
0.08992658
0.08986845
0.08981062
0.08975308
0.08969599
0.08963928
0.08958288
0.08952682
0.08947115
0.08941582
0.08936080
0.08930616
0.08925192
0.08919801
0.08914441
0.08909125
0.08903838
0.08898590
0.08893372
0.08888194
0.08883053
0.08877944
0.08872868
0.08867831
0.08862829
0.08857861
0.08852932
0.08848034
0.08843173
0.08838348
0.08833557
0.08828803
0.08824082
0.08819398
0.08814748
0.08810133
0.08805557
0.08801011
0.08796504
0.08792031
0.08787599
0.08783195
0.08778829
0.08774498
0.08770201
0.08765938
0.08761710
0.08757523
0.08753368
0.08749247
0.08745161
0.08741112
0.08737101
0.08733121
0.08729176
0.08725265
0.08721395
0.08717554
0.08713750
0.08709980
0.08706251
0.08702551
0.08698888
0.08695259
0.08691668
0.08688109
0.08684587
0.08681102
0.08677649
0.08674230
0.08670849
0.08667502
0.08664192
0.08660912
0.08657669
0.08654465
0.08651293
0.08648153
0.08645053
0.08641985
0.08638956
0.08635957
0.08632997
0.08630069
0.08627181
0.08624322
0.08621502
0.08618713
0.08615960
0.08613246
0.08610562
0.08607916
0.08605306
0.08602726
0.08600186
0.08597676
0.08595206
0.08592765
0.08590366
0.08587996
0.08585664
0.08583367
0.08581103
0.08578875
0.08576681
0.08574522
0.08572399
0.08570310
0.08568256
0.08566237
0.08564251
0.08562302
0.08560388
0.08558507
0.08556662
0.08554853
0.08553075
0.08551335
0.08549629
0.08547959
0.08546321
0.08544719
0.08543152
0.08541621
0.08540121
0.08538659
0.08537231
0.08535838
0.08534479
0.08533154
0.08531864
0.08530610
0.08529390
0.08528205
0.08527054
0.08525938
0.08524855
0.08523809
0.08522797
0.08521819
0.08520876
0.08519968
0.08519094
0.08518254
0.08517450
0.08516680
0.08515945
0.08515243
0.08514576
0.08513945
0.08513348
0.08512785
0.08512257
0.08511763
0.08511304
0.08510879
0.08510489
0.08510133
0.08509812
0.08509526
0.08509274
0.08509056
0.08508873
0.08508724
0.08508610
0.08508530
0.08508485
0.08508474
0.08508497
0.08508555
0.08508647
0.08508774
0.08508935
0.08509131
0.08509361
0.08509625
0.08509923
0.08510256
0.08510624
0.08511026
0.08511462
0.08511932
0.08512437
0.08512976
0.08513550
0.08514157
0.08514799
0.08515476
0.08516186
0.08516931
0.08517710
0.08518524
0.08519371
0.08520253
0.08521170
0.08522121
0.08523105
0.08524124
0.08525176
0.08526264
0.08527386
0.08528542
0.08529732
0.08530956
0.08532214
0.08533508
0.08534833
0.08536195
0.08537591
0.08539019
0.08540484
0.08541980
0.08543511
0.08545076
0.08546678
0.08548311
0.08549980
0.08551681
0.08553418
0.08555187
0.08556993
0.08558831
0.08560704
0.08562610
0.08564551
0.08566526
0.08568534
0.08570577
0.08572653
0.08574767
0.08576909
0.08579088
0.08581301
0.08583547
0.08585830
0.08588145
0.08590492
0.08592877
0.08595292
0.08597742
0.08600228
0.08602747
0.08605297
0.08607887
0.08610506
0.08613157
0.08615846
0.08618570
0.08621325
0.08624113
0.08626937
0.08629796
0.08632688
0.08635612
0.08638570
0.08641562
0.08644591
0.08647653
0.08650745
0.08653873
0.08657034
0.08660230
0.08663463
0.08666724
0.08670020
0.08673351
0.08676715
0.08680114
0.08683545
0.08687010
0.08690514
0.08694048
0.08697613
0.08701214
0.08704848
0.08708515
0.08712217
0.08715954
0.08719721
0.08723526
0.08727362
0.08731232
0.08735137
0.08739072
0.08743046
0.08747050
0.08751088
0.08755161
0.08759268
0.08763406
0.08767578
0.08771785
0.08776022
0.08780297
0.08784603
0.08788943
0.08793321
0.08797730
0.08802169
0.08806646
0.08811150
0.08815692
0.08820268
0.08824879
0.08829524
0.08834199
0.08838904
0.08843648
0.08848426
0.08853238
0.08858081
0.08862954
0.08867865
0.08872810
0.08877790
0.08882795
0.08887839
0.08892921
0.08898025
0.08903172
0.08908353
0.08913559
0.08918804
0.08924084
0.08929397
0.08934736
0.08940118
0.08945525
0.08950971
0.08956451
0.08961957
0.08967506
0.08973084
0.08978692
0.08984339
0.08990010
0.08995726
0.09001466
0.09007245
0.09013063
0.09018900
0.09024782
0.09030688
0.09036633
0.09042608
0.09048621
0.09054659
0.09060741
0.09066847
0.09072993
0.09079167
0.09085371
0.09091618
0.09097890
0.09104201
0.09110541
0.09116921
0.09123324
0.09129767
0.09136243
0.09142749
0.09149295
0.09155863
0.09162465
0.09169113
0.09175784
0.09182483
0.09189228
0.09196002
0.09202803
0.09209645
0.09216515
0.09223419
0.09230352
0.09237330
0.09244331
0.09251360
0.09258429
0.09265539
0.09272670
0.09279835
0.09287036
0.09294275
0.09301543
0.09308839
0.09316169
0.09323533
0.09330944
0.09338371
0.09345837
0.09353331
0.09360860
0.09368422
0.09376019
0.09383644
0.09391315
0.09399008
0.09406735
0.09414496
0.09422284
0.09430113
0.09437970
0.09445861
0.09453786
0.09461745
0.09469731
0.09477758
0.09485813
0.09493901
0.09502017
0.09510173
0.09518358
0.09526582
0.09534835
0.09543120
0.09551434
0.09559788
0.09568170
0.09576585
0.09585035
0.09593518
0.09602036
0.09610580
0.09619152
0.09627765
0.09636412
0.09645085
0.09653800
0.09662542
0.09671317
0.09680119
0.09688963
0.09697833
0.09706745
0.09715683
0.09724656
0.09733647
0.09742687
0.09751754
0.09760863
0.09769991
0.09779152
0.09788355
0.09797592
0.09806848
0.09816145
0.09825476
0.09834833
0.09844225
0.09853658
0.09863118
0.09872603
0.09882131
0.09891693
0.09901271
0.09910893
0.09920541
0.09930230
0.09939954
0.09949695
0.09959486
0.09969294
0.09979146
0.09989031
0.09998933
0.10008886
0.10018857
0.10028870
0.10038908
0.10048988
0.10059085
0.10069225
0.10079391
0.10089608
0.10099833
0.10110108
0.10120400
0.10130745
0.10141105
0.10151508
0.10161928
0.10172398
0.10182886
0.10193416
0.10203971
0.10214559
0.10225191
0.10235839
0.10246530
0.10257245
0.10267995
0.10278787
0.10289596
0.10300438
0.10311332
0.10322242
0.10333177
0.10344163
0.10355175
0.10366211
0.10377290
0.10388394
0.10399523
0.10410695
0.10421900
0.10433130
0.10444394
0.10455692
0.10467032
0.10478388
0.10489778
0.10501202
0.10512660
0.10524160
0.10535676
0.10547235
0.10558817
0.10570434
0.10582075
0.10593770
0.10605488
0.10617231
0.10629007
0.10640817
0.10652651
0.10664528
0.10676430
0.10688365
0.10700335
0.10712337
0.10724385
0.10736445
0.10748550
0.10760678
0.10772840
0.10785025
0.10797254
0.10809507
0.10821794
0.10834114
0.10846468
0.10858856
0.10871268
0.10883724
0.10896181
0.10908695
0.10921241
0.10933821
0.10946424
0.10959061
0.10971733
0.10984437
0.10997176
0.11009937
0.11022721
0.11035550
0.11048413
0.11061309
0.11074240
0.11087192
0.11100190
0.11113189
0.11126243
0.11139331
0.11152453
0.11165598
0.11178765
0.11191976
0.11205221
0.11218501
0.11231792
0.11245127
0.11258496
0.11271888
0.11285325
0.11298783
0.11312287
0.11325802
0.11339362
0.11352956
0.11366560
0.11380221
0.11393904
0.11407610
0.11421361
0.11435133
0.11448951
0.11462792
0.11476653
0.11490561
0.11504489
0.11518465
0.11532461
0.11546491
0.11560555
0.11574640
0.11588772
0.11602912
0.11617110
0.11631319
0.11645572
0.11659847
0.11674169
0.11688500
0.11702887
0.11717286
0.11731729
0.11746193
0.11760704
0.11775224
0.11789790
0.11804376
0.11818996
0.11833663
0.11848351
0.11863071
0.11877827
0.11892590
0.11907425
0.11922255
0.11937132
0.11952042
0.11966973
0.11981938
0.11996948
0.12011980
0.12027033
0.12042144
0.12057265
0.12072417
0.12087604
0.12102824
0.12118079
0.12133353
0.12148673
0.12164016
0.12179390
0.12194786
0.12210227
0.12225704
0.12241200
0.12256729
0.12272278
0.12287875
0.12303492
0.12319169
0.12334853
0.12350556
0.12366307
0.12382079
0.12397897
0.12413735
0.12429620
0.12445525
0.12461449
0.12477421
0.12493414
0.12509438
0.12525498
0.12541575
0.12557702
0.12573846
0.12590040
0.12606251
0.12622483
0.12638763
0.12655075
0.12671407
0.12687773
0.12704173
0.12720606
0.12737057
0.12753557
0.12770076
0.12786628
0.12803214
0.12819833
0.12836487
0.12853143
0.12869848
0.12886588
0.12903359
0.12920164
0.12936989
0.12953861
0.12970738
0.12987664
0.13004621
0.13021598
0.13038624
0.13055668
0.13072730
0.13089840
0.13106984
0.13124162
0.13141343
0.13158572
0.13175850
0.13193146
0.13210447
0.13227810
0.13245191
0.13262621
0.13280039
0.13297520
0.13315034
0.13332568
0.13350134
0.13367735
0.13385353
0.13403019
0.13420720
0.13438422
0.13456189
0.13473974
0.13491776
0.13509628
0.13527482
0.13545400
0.13563337
0.13581290
0.13599293
0.13617313
0.13635382
0.13653454
0.13671591
0.13689711
0.13707915
0.13726104
0.13744357
0.13762613
0.13780933
0.13799239
0.13817626
0.13835998
0.13854437
0.13872874
0.13891380
0.13909869
0.13928408
0.13946997
0.13965585
0.13984241
0.14002896
0.14021585
0.14040324
0.14059079
0.14077867
0.14096689
0.14115529
0.14134417
0.14153322
0.14172244
0.14191233
0.14210222
0.14229242
0.14248298
0.14267402
0.14286507
0.14305662
0.14324833
0.14344054
0.14363291
0.14382562
0.14401867
0.14421204
0.14440557
0.14459944
0.14479363
0.14498816
0.14518320
0.14537822
0.14557359
0.14576927
0.14596528
0.14616163
0.14635850
0.14655534
0.14675252
0.14695001
0.14714786
0.14734602
0.14754453
0.14774319
0.14794218
0.14814149
0.14834115
0.14854132
0.14874164
0.14894211
0.14914292
0.14934405
0.14954552
0.14974732
0.14994926
0.15015154
0.15035433
0.15055727
0.15076057
0.15096380
0.15116757
0.15137183
0.15157626
0.15178101
0.15198610
0.15219151
0.15239708
0.15260298
0.15280938
0.15301595
0.15322246
0.15342969
0.15363706
0.15384495
0.15405298
0.15426134
0.15446984
0.15467868
0.15488803
0.15509753
0.15530754
0.15551734
0.15572782
0.15593864
0.15614962
0.15636110
0.15657253
0.15678450
0.15699678
0.15720902
0.15742198
0.15763506
0.15784849
0.15806205
0.15827614
0.15849054
0.15870490
0.15891978
0.15913500
0.15935035
0.15956622
0.15978223
0.15999859
0.16021544
0.16043206
0.16064959
0.16086687
0.16108486
0.16130318
0.16152143
0.16174024
0.16195915
0.16217861
0.16239800
0.16261810
0.16283815
0.16305873
0.16327942
0.16350066
0.16372182
0.16394372
0.16416554
0.16438790
0.16461038
0.16483340
0.16505654
0.16528001
0.16550381
0.16572774
0.16595220
0.16617659
0.16640171
0.16662695
0.16685234
0.16707824
0.16730426
0.16753063
0.16775733
0.16798434
0.16821149
0.16843916
0.16866697
0.16889511
0.16912379
0.16935237
0.16958122
0.16981067
0.17004046
0.17027036
0.17050037
0.17073115
0.17096182
0.17119282
0.17142418
0.17165584
0.17188804
0.17212014
0.17235279
0.17258557
0.17281866
0.17305232
0.17328584
0.17351994
0.17375415
0.17398866
0.17422353
0.17445872
0.17469424
0.17493029
0.17516625
0.17540254
0.17563915
0.17587610
0.17611337
0.17635075
0.17658846
0.17682672
0.17706509
0.17730378
0.17754260
0.17778195
0.17802143
0.17826143
0.17850154
0.17874201
0.17898255
0.17922367
0.17946486
0.17970664
0.17994849
0.18019070
0.18043300
0.18067586
0.18091903
0.18116189
0.18140571
0.18164965
0.18189370
0.18213830
0.18238322
0.18262825
0.18287360
0.18311908
0.18336509
0.18361119
0.18385786
0.18410464
0.18435150
0.18459894
0.18484668
0.18509475
0.18534294
0.18559143
0.18584028
0.18608945
0.18633892
0.18658828
0.18683843
0.18708867
0.18733901
0.18759012
0.18784111
0.18809245
0.18834431
0.18859628
0.18884836
0.18910099
0.18935394
0.18960698
0.18986058
0.19011428
0.19036808
0.19062243
0.19087689
0.19113189
0.19138721
0.19164241
0.19189839
0.19215424
0.19241066
0.19266692
0.19292397
0.19318088
0.19343860
0.19369617
0.19395430
0.19421252
0.19447128
0.19472993
0.19498912
0.19524840
0.19550849
0.19576818
0.19602868
0.19628926
0.19655019
0.19681117
0.19707248
0.19733439
0.19759636
0.19785889
