corrn_curve_quartic
2.70681414
2.70622936
2.70563567
2.70503470
2.70442482
2.70380778
2.70318265
2.70254956
2.70190841
2.70125928
2.70060314
2.69993814
2.69926613
2.69858523
2.69789743
2.69720175
2.69649822
2.69578685
2.69506865
2.69434165
2.69360794
2.69286538
2.69211720
2.69136021
2.69059556
2.68982316
2.68904308
2.68825649
2.68746116
2.68665932
2.68584988
2.68503286
2.68420827
2.68337613
2.68253762
2.68169043
2.68083699
2.67997608
2.67910644
2.67823056
2.67734732
2.67645792
2.67555982
2.67465441
2.67374291
2.67282408
2.67189793
2.67096313
2.67002377
2.66907578
2.66812053
2.66715946
2.66618976
2.66521422
2.66423158
2.66324177
2.66224476
2.66124068
2.66022942
2.65921114
2.65818871
2.65715622
2.65611819
2.65507315
2.65401964
2.65296216
2.65189615
2.65082475
2.64974485
2.64865953
2.64756740
2.64646838
2.64536242
2.64424969
2.64313011
2.64200529
2.64087202
2.63973370
2.63858855
2.63743665
2.63627640
2.63511267
2.63394071
2.63276197
2.63157656
2.63038625
2.62919098
2.62798567
2.62677553
2.62555880
2.62433542
2.62310729
2.62187092
2.62062976
2.61938220
2.61812715
2.61686656
2.61560045
2.61432613
2.61304812
2.61176278
2.61047201
2.60917296
2.60786948
2.60655957
2.60524247
2.60392101
2.60259317
2.60126016
2.59991981
2.59857233
2.59722052
2.59586261
2.59449943
2.59312907
2.59175255
2.59037091
2.58898326
2.58759032
2.58619140
2.58478642
2.58337329
2.58195725
2.58053413
2.57910596
2.57767296
2.57623282
2.57478790
2.57333692
2.57188013
2.57041732
2.56894970
2.56747511
2.56599475
2.56450953
2.56301958
2.56152271
2.56002114
2.55851379
2.55700179
2.55548280
2.55395931
2.55243225
2.55089734
2.54935776
2.54781262
2.54626170
2.54470526
2.54314307
2.54157642
2.54000429
2.53842646
2.53684307
2.53525529
2.53366317
2.53206542
2.53046109
2.52885126
2.52723716
2.52561759
2.52399488
2.52236445
2.52072969
2.51908966
2.51744412
2.51579567
2.51413953
2.51247916
2.51081347
2.50914259
2.50746867
2.50578834
2.50410276
2.50241445
2.50071839
2.49901837
2.49731315
2.49560390
2.49388960
2.49216887
2.49044543
2.48871558
2.48698204
2.48524458
2.48349943
2.48175313
2.47999930
2.47824030
2.47647890
2.47471118
2.47293847
2.47116343
2.46938077
2.46759703
2.46580448
2.46401104
2.46221122
2.46040799
2.45859718
2.45678544
2.45496614
2.45314474
2.45131729
2.44948764
2.44765046
2.44581127
2.44396455
2.44211724
2.44026243
2.43840568
2.43654145
2.43467672
2.43280579
2.43092893
2.42905025
2.42716539
2.42527746
2.42338622
2.42148770
2.41958730
2.41768379
2.41577287
2.41386029
2.41194321
2.41001888
2.40809425
2.40616371
2.40422871
2.40229058
2.40034817
2.39840281
2.39645011
2.39449581
2.39253730
2.39057575
2.38860705
2.38663684
2.38466231
2.38268347
2.38069900
2.37871310
2.37672294
2.37472853
2.37273140
2.37072854
2.36872147
2.36671172
2.36469780
2.36268108
2.36066037
2.35863537
2.35660640
2.35457317
2.35253753
2.35049473
2.34845078
2.34640433
2.34435229
2.34229794
2.34023941
2.33817844
2.33611193
2.33404301
2.33196997
2.32989314
2.32781238
2.32572928
2.32364069
2.32154963
2.31945644
2.31735764
2.31525673
2.31315183
2.31104326
2.30893072
2.30681759
2.30469907
2.30257677
2.30045072
2.29832254
2.29619062
2.29405337
2.29191403
2.28977425
2.28762916
2.28548025
2.28332785
2.28117180
2.27901196
2.27685344
2.27468655
2.27251920
2.27034679
2.26817065
2.26599594
2.26381437
2.26162944
2.25944084
2.25725207
2.25505815
2.25286076
2.25066310
2.24846048
2.24625275
2.24404648
2.24183360
2.23961884
2.23740257
2.23518107
2.23295638
2.23072988
2.22850004
2.22626706
2.22403231
2.22179256
2.21955295
2.21730837
2.21505881
2.21281117
2.21055685
2.20830260
2.20604358
2.20378311
2.20151773
2.19925074
2.19698250
2.19470922
2.19243472
2.19015518
2.18787603
2.18559222
2.18330691
2.18102028
2.17872710
2.17643438
2.17413688
2.17183812
2.16953635
2.16723336
2.16492722
2.16261474
2.16030463
2.15798802
2.15567186
2.15335457
2.15102919
2.14870610
2.14638013
2.14404789
2.14171798
2.13938344
2.13704444
2.13470604
2.13236646
2.13001902
2.12767404
2.12532610
2.12297559
2.12062051
2.11826451
2.11590742
2.11354780
2.11118183
2.10881846
2.10645059
2.10408206
2.10171070
2.09933304
2.09695842
2.09457916
2.09219914
2.08981652
2.08743316
2.08504355
2.08265322
2.08026218
2.07786843
2.07547419
2.07307559
2.07067615
2.06827441
2.06587001
2.06346519
2.06105401
2.05864429
2.05623196
2.05381721
2.05140023
2.04898255
2.04656248
2.04414003
2.04171523
2.03928995
2.03686234
2.03443240
2.03199995
2.02956539
2.02713043
2.02469488
2.02225725
2.01981529
2.01737127
2.01492672
2.01248013
2.01003114
2.00757995
2.00512847
2.00267500
2.00022108
1.99776309
1.99530487
1.99284261
1.99038013
1.98791554
1.98545249
1.98298563
1.98051477
1.97804357
1.97557050
1.97309905
1.97062383
1.96814447
1.96566522
1.96318763
1.96070420
1.95822071
1.95573526
1.95324979
1.95076237
1.94827128
1.94578175
1.94328856
1.94079347
1.93830039
1.93580328
1.93330254
1.93080580
1.92830312
1.92579879
1.92329635
1.92079033
1.91828623
1.91577642
1.91326502
1.91075558
1.90824241
1.90573142
1.90321476
1.90070031
1.89818217
1.89566429
1.89314274
1.89062345
1.88810032
1.88557769
1.88305143
1.88052729
1.87799775
1.87547035
1.87293956
1.87040895
1.86787496
1.86534316
1.86281178
1.86027288
1.85773840
1.85519839
1.85266084
1.85012377
1.84757920
1.84503913
1.84249357
1.83995033
1.83740783
1.83485987
1.83231227
1.82976543
1.82721497
1.82466529
1.82211401
1.81956335
1.81700949
1.81445607
1.81190129
1.80934314
1.80678767
1.80423087
1.80167274
1.79911331
1.79655056
1.79399054
1.79142925
1.78886850
1.78630468
1.78373758
1.78117308
1.77860755
1.77604060
1.77347446
1.77090530
1.76833474
1.76576503
1.76319435
1.76062433
1.75805114
1.75547883
1.75290539
1.75033286
1.74775719
1.74518225
1.74260642
1.74002951
1.73745335
1.73487227
1.73229420
1.72971490
1.72713476
1.72455339
1.72197326
1.71939396
1.71681162
1.71422830
1.71164606
1.70906284
1.70647683
1.70389356
1.70130751
1.69872054
1.69613469
1.69354794
1.69096029
1.68837176
1.68578624
1.68319801
1.68060872
1.67801878
1.67542985
1.67283824
1.67024766
1.66765833
1.66506634
1.66247541
1.65988164
1.65728916
1.65470003
1.65210603
1.64951128
1.64691786
1.64432557
1.64173070
1.63913719
1.63654092
1.63394788
1.63135230
1.62875606
1.62616307
1.62356531
1.62096917
1.61837426
1.61577666
1.61318072
1.61058583
1.60798662
1.60538869
1.60279431
1.60019523
1.59759973
1.59500161
1.59240274
1.58980562
1.58720797
1.58461168
1.58201301
1.57941593
1.57681607
1.57421802
1.57162137
1.56902032
1.56642484
1.56382476
1.56122840
1.55862767
1.55603235
1.55343288
1.55083488
1.54823837
1.54563961
1.54304255
1.54044306
1.53784737
1.53524718
1.53265061
1.53005579
1.52745670
1.52485939
1.52226157
1.51966574
1.51706943
1.51447077
1.51187600
1.50928119
1.50668384
1.50408833
1.50149468
1.49889664
1.49630256
1.49370827
1.49111379
1.48851704
1.48592408
1.48333115
1.48073786
1.47814254
1.47555124
1.47295960
1.47036784
1.46777617
1.46518210
1.46259022
1.46000013
1.45740995
1.45481970
1.45222730
1.44963901
1.44704859
1.44446022
1.44187390
1.43928546
1.43669890
1.43411044
1.43152199
1.42893564
1.42634931
1.42376487
1.42118048
1.41859634
1.41601204
1.41342988
1.41084592
1.40826391
1.40568199
1.40310016
1.40052052
1.39793911
1.39535949
1.39278020
1.39020105
1.38762413
1.38504527
1.38246866
1.37989200
1.37731573
1.37474173
1.37216980
1.36959598
1.36702258
1.36444918
1.36187622
1.35930537
1.35673476
1.35416461
1.35159658
1.34902882
1.34645926
1.34389205
1.34132514
1.33875852
1.33619636
1.33363224
1.33106864
1.32850537
1.32594639
1.32338380
1.32082343
1.31826156
1.31570608
1.31314703
1.31058816
1.30803196
1.30547804
1.30292244
1.30036934
1.29781666
1.29526441
1.29271261
1.29016332
1.28761241
1.28506404
1.28251822
1.27997080
1.27742386
1.27487929
1.27233542
1.26979393
1.26725108
1.26471063
1.26216885
1.25962946
1.25709270
1.25455256
1.25201898
1.24948183
1.24694940
1.24441342
1.24188423
1.23935151
1.23682147
1.23429204
1.23176530
1.22923506
1.22671144
1.22418455
1.22166244
1.21914078
1.21661588
1.21409763
1.21157614
1.20905926
1.20654308
1.20402369
1.20151099
1.19899489
1.19648363
1.19397311
1.19145942
1.18895224
1.18644396
1.18393646
1.18143177
1.17892787
1.17642270
1.17392038
1.17142070
1.16892204
1.16642009
1.16392491
1.16142851
1.15893520
1.15643844
1.15394866
1.15145791
1.14896782
1.14648064
1.14399026
1.14150690
1.13902239
1.13653878
1.13405812
1.13157838
1.12909548
1.12661963
1.12414248
1.12166851
1.11919550
1.11672323
1.11425214
1.11178182
1.10931472
1.10684433
1.10437921
1.10191692
1.09945360
1.09699333
1.09453225
1.09207403
1.08961887
1.08716273
1.08470946
1.08225563
1.07980448
1.07735461
1.07490783
1.07246012
1.07001532
1.06757182
1.06512942
1.06269197
1.06025160
1.05781458
1.05537849
1.05294374
1.05050993
1.04807929
1.04564800
1.04321968
1.04079636
1.03837060
1.03594763
1.03352425
1.03110388
1.02868451
1.02627056
1.02385383
1.02144032
1.01902785
1.01661683
1.01420884
1.01180231
1.00939485
1.00699084
1.00458991
1.00218846
0.99979009
0.99739500
0.99499922
0.99260277
0.99021160
0.98782175
0.98543322
0.98304603
0.98066216
0.97827766
0.97589847
0.97351667
0.97113803
0.96876293
0.96638723
0.96401273
0.96164375
0.95927401
0.95690764
0.95454091
0.95217933
0.94981544
0.94745672
0.94509746
0.94273965
0.94038525
0.93803231
0.93568279
0.93333082
0.93098620
0.92863914
0.92629748
0.92395712
0.92161454
0.91927933
0.91694153
0.91460740
0.91227479
0.90994547
0.90761768
0.90528968
0.90296693
0.90064185
0.89832240
0.89600433
0.89368590
0.89137292
0.88906152
0.88674785
0.88443965
0.88213497
0.87982806
0.87752642
0.87522660
0.87292455
0.87062992
0.86833481
0.86604346
0.86374974
0.86146171
0.85917706
0.85689217
0.85460724
0.85232762
0.85004970
0.84777366
0.84550104
0.84322632
0.84095712
0.83868964
0.83642389
0.83415986
0.83189929
0.82963875
0.82737996
0.82512482
0.82287145
0.82062154
0.81837171
0.81612535
0.81388097
0.81163819
0.80939910
0.80716011
0.80492462
0.80269094
0.80045928
0.79823113
0.79600106
0.79377657
0.79155393
0.78933501
0.78711607
0.78490087
0.78268734
0.78047586
0.77826627
0.77605856
0.77385255
0.77165049
0.76945032
0.76725188
0.76505553
0.76286092
0.76067008
0.75848320
0.75629622
0.75411118
0.75192809
0.74974880
0.74757164
0.74539443
0.74322451
0.74105307
0.73888545
0.73671799
0.73455434
0.73239452
0.73023652
0.72807888
0.72592508
0.72377493
0.72162517
0.71947726
0.71733157
0.71519136
0.71305139
0.71091365
0.70877959
0.70664579
0.70451586
0.70238981
0.70026403
0.69813872
0.69602053
0.69390120
0.69178542
0.68967371
0.68756231
0.68545644
0.68334928
0.68124426
0.67914494
0.67704579
0.67495235
0.67285767
0.67076853
0.66867817
0.66659157
0.66451069
0.66242861
0.66035031
0.65827419
0.65620203
0.65413030
0.65206253
0.64999697
0.64793538
0.64587600
0.64381533
0.64176198
0.63970753
0.63765881
0.63560885
0.63356619
0.63152404
0.62948258
0.62744669
0.62541323
0.62337841
0.62135107
0.61932272
0.61729821
0.61527773
0.61325782
0.61124193
0.60922836
0.60721881
0.60520816
0.60320325
0.60120068
0.59919873
0.59720082
0.59520680
0.59321530
0.59122444
0.58923748
0.58725305
0.58527252
0.58329436
0.58131536
0.57934196
0.57737112
0.57540419
0.57343965
0.57147752
0.56951461
0.56755730
0.56560392
0.56365162
0.56170308
0.55975715
0.55781365
0.55587426
0.55393565
0.55200099
0.55006564
0.54813607
0.54621045
0.54428581
0.54236514
0.54044547
0.53852976
0.53661819
0.53470763
0.53279942
0.53089534
0.52899378
0.52709489
0.52519836
0.52330598
0.52141451
0.51953028
0.51764549
0.51576326
0.51388357
0.51200805
0.51013331
0.50826291
0.50639507
0.50453126
0.50266857
0.50081151
0.49895559
0.49710210
0.49525120
0.49340307
0.49155897
0.48971906
0.48788018
0.48604392
0.48421044
0.48238243
0.48055562
0.47873004
0.47690836
0.47509262
0.47327638
0.47146437
0.46965346
0.46784973
0.46604571
0.46424420
0.46244864
0.46065404
0.45886074
0.45707461
0.45528809
0.45350442
0.45172638
0.44994950
0.44817534
0.44640559
0.44463687
0.44287393
0.44111219
0.43935166
0.43759829
0.43584477
0.43409703
0.43234901
0.43060677
0.42886563
0.42713042
0.42539496
0.42366513
0.42193523
0.42021096
0.41848813
0.41677092
0.41505353
0.41334191
0.41163175
0.40992574
0.40822106
0.40652067
0.40482311
0.40312984
0.40143940
0.39975032
0.39806554
0.39638507
0.39470452
0.39302959
0.39135621
0.38968714
0.38802223
0.38635744
0.38469827
0.38304212
0.38138725
0.37973830
0.37809064
0.37644731
0.37480559
0.37316805
0.37153342
0.36990311
0.36827288
0.36664840
0.36502683
0.36340819
0.36179107
0.36017970
0.35857112
0.35696561
0.35536305
0.35376204
0.35216525
0.35057294
0.34898344
0.34739705
0.34581349
0.34423304
0.34265680
0.34108093
0.33951066
0.33794338
0.33637908
0.33481915
0.33326086
0.33170692
0.33015600
0.32860809
0.32706319
0.32552266
0.32398515
0.32244933
0.32091908
0.31939066
0.31786529
0.31634415
0.31482487
0.31330996
0.31179798
0.31029038
0.30878465
0.30728317
0.30578358
0.30428825
0.30279730
0.30130943
0.29982464
0.29834164
0.29686316
0.29538765
0.29391641
0.29244710
0.29098348
0.28952168
0.28806299
0.28660729
0.28515485
0.28370553
0.28226177
0.28081999
0.27938134
0.27794572
0.27651575
0.27508655
0.27366162
0.27223998
0.27082262
0.26940842
0.26799615
0.26658953
0.26518483
0.26378208
0.26238388
0.26099107
0.25960035
0.25821159
0.25682847
0.25544733
0.25407170
0.25269697
0.25132546
0.24996066
0.24859557
0.24723720
0.24587977
0.24452545
0.24317675
0.24183021
0.24048798
0.23914780
0.23781323
0.23647967
0.23515160
0.23382561
0.23250405
0.23118458
0.22987071
0.22855778
0.22725045
0.22594523
0.22464434
0.22334684
0.22205263
0.22076273
0.21947511
0.21819180
0.21691077
0.21563520
0.21436192
0.21309183
0.21182619
0.21056285
0.20930384
0.20804927
0.20679591
0.20554799
0.20430341
0.20306106
0.20182425
0.20058969
0.19935945
0.19813159
0.19690817
0.19568811
0.19447032
0.19325796
0.19204906
0.19084343
0.18964127
0.18844143
0.18724699
0.18605498
0.18486731
0.18368303
0.18250119
0.18132370
0.18015065
0.17898101
0.17781476
0.17665193
0.17549158
0.17433558
0.17318392
0.17203486
0.17089005
0.16974979
0.16861194
0.16747752
0.16634745
0.16522092
0.16409774
0.16297810
0.16186191
0.16075007
0.15964079
0.15853587
0.15743441
0.15633651
0.15524297
0.15415192
0.15306531
0.15198219
0.15090255
0.14982649
0.14875468
0.14768560
0.14662078
0.14555955
0.14450183
0.14344760
0.14239689
0.14135146
0.14030870
0.13926946
0.13823364
0.13720144
0.13617369
0.13515029
0.13412949
0.13311232
0.13209860
0.13108842
0.13008359
0.12908148
0.12808194
0.12708685
0.12609532
0.12510912
0.12412558
0.12314473
0.12216921
0.12119637
0.12022798
0.11926229
0.11830183
0.11734330
0.11638922
0.11544035
0.11449345
0.11355005
0.11261203
0.11167667
0.11074576
0.10981769
0.10889315
0.10797387
0.10705746
0.10614541
0.10523614
0.10433051
0.10342930
0.10253173
0.10163859
0.10074747
0.09986238
0.09897934
0.09810073
0.09722568
0.09635515
0.09548669
0.09462415
0.09376378
0.09290785
0.09205550
0.09120757
0.09036186
0.08952202
0.08868517
0.08785116
0.08702233
0.08619643
0.08537502
0.08455723
0.08374238
0.08293269
0.08212523
0.08132292
0.08052431
0.07972867
0.07893810
0.07815131
0.07736750
0.07658740
0.07581166
0.07503970
0.07427145
0.07350686
0.07274674
0.07199029
0.07123694
0.07048794
0.06974335
0.06900182
0.06826409
0.06753071
0.06680107
0.06607517
0.06535368
0.06463528
0.06392064
0.06321041
0.06250393
0.06180121
0.06110289
0.06040834
0.05971686
0.05902921
0.05834597
0.05766706
0.05699137
0.05632008
0.05565250
0.05498871
0.05432877
0.05367256
0.05302073
0.05237217
0.05172794
0.05108751
0.05045095
0.04981870
0.04918969
0.04856506
0.04794424
0.04732724
0.04671405
0.04610469
0.04549965
0.04489794
0.04430060
0.04370710
0.04311844
0.04253260
0.04195055
0.04137292
0.04079907
0.04022912
0.03966297
0.03910072
0.03854330
0.03798921
0.03743903
0.03689265
0.03635014
0.03581199
0.03527769
0.03474727
0.03422023
0.03369755
0.03317969
0.03266476
0.03215418
0.03164701
0.03114461
0.03064568
0.03015109
0.02966035
0.02917353
0.02869017
0.02821155
0.02773643
0.02726560
0.02679867
0.02633569
0.02587616
0.02542137
0.02497013
0.02452353
0.02408012
0.02364058
0.02320578
0.02277449
0.02234792
0.02192449
0.02150499
0.02109015
0.02067857
0.02027160
0.01986823
0.01946950
0.01907402
0.01868321
0.01829562
0.01791267
0.01753334
0.01715863
0.01678719
0.01642042
0.01605756
0.01569801
0.01534341
0.01499215
0.01464515
0.01430244
0.01396307
0.01362830
0.01329721
0.01297069
0.01264785
0.01232900
0.01201413
0.01170379
0.01139661
0.01109427
0.01079562
0.01050099
0.01021035
0.00992396
0.00964182
0.00936319
0.00908883
0.00881870
0.00855257
0.00828999
0.00803188
0.00777803
0.00752795
0.00728169
0.00703993
0.00680214
0.00656837
0.00633884
0.00611313
0.00589124
0.00567379
0.00546036
0.00525098
0.00504564
0.00484451
0.00464725
0.00445421
0.00426520
0.00408008
0.00389917
0.00372233
0.00354969
0.00338111
0.00321658
0.00305610
0.00289968
0.00274734
0.00259919
0.00245497
0.00231495
0.00217900
0.00204712
0.00191944
0.00179571
0.00167617
0.00156072
0.00144933
0.00134203
0.00123892
0.00113988
0.00104493
0.00095399
0.00086722
0.00078455
0.00070604
0.00063157
0.00056131
0.00049510
0.00043299
0.00037497
0.00032107
0.00027129
0.00022569
0.00018416
0.00014675
0.00011345
0.00008427
0.00005925
0.00003831
0.00002151
0.00000884
0.00000029
-0.00000413
-0.00000442
-0.00000058
0.00000738
0.00001948
0.00003571
0.00005608
0.00008060
0.00010921
0.00014198
0.00017890
0.00021992
0.00026513
0.00031450
0.00036791
0.00042558
0.00048730
0.00055323
0.00062332
0.00069743
0.00077584
0.00085827
0.00094493
0.00103567
0.00113067
0.00122974
0.00133299
0.00144030
0.00155199
0.00166765
0.00178759
0.00191149
0.00203979
0.00217203
0.00230871
0.00244932
0.00259423
0.00274307
0.00289623
0.00305359
0.00321513
0.00338086
0.00355064
0.00372447
0.00390279
0.00408516
0.00427157
0.00446234
0.00465714
0.00485614
0.00505934
0.00526678
0.00547820
0.00569424
0.00591390
0.00613796
