corrn_curve_cubic
0.99328762
0.99487495
0.99645884
0.99803496
0.99960764
1.00117245
1.00273179
1.00428544
1.00583363
1.00737626
1.00891110
1.01044251
1.01196628
1.01348671
1.01499941
1.01650660
1.01800828
1.01950445
1.02099307
1.02247826
1.02395581
1.02543003
1.02689462
1.02835589
1.02981161
1.03126198
1.03270692
1.03414433
1.03557830
1.03700488
1.03842606
1.03984184
1.04125223
1.04265723
1.04405492
1.04544917
1.04683604
1.04821755
1.04959573
1.05096666
1.05233215
1.05369044
1.05504539
1.05639493
1.05773730
1.05907438
1.06040618
1.06173462
1.06305393
1.06436991
1.06568062
1.06698417
1.06828437
1.06957754
1.07086539
1.07214802
1.07342552
1.07469773
1.07596482
1.07722662
1.07847965
1.07973117
1.08097570
1.08221505
1.08345097
1.08467822
1.08590212
1.08711911
1.08833274
1.08953957
1.09074120
1.09193772
1.09312923
1.09431556
1.09549681
1.09667133
1.09784251
1.09900682
1.10016616
1.10132046
1.10247131
1.10361393
1.10475303
1.10588719
1.10701633
1.10813881
1.10925474
1.11036887
1.11147637
1.11257890
1.11367654
1.11476760
1.11585523
1.11693639
1.11801254
1.11908462
1.12015098
1.12121163
1.12226885
1.12331892
1.12436486
1.12540514
1.12644206
1.12747257
1.12849829
1.12951982
1.13053498
1.13154537
1.13255011
1.13355082
1.13454736
1.13553768
1.13652311
1.13750308
1.13847898
1.13945007
1.14041566
1.14137639
1.14233179
1.14328235
1.14422815
1.14517058
1.14610618
1.14703773
1.14796393
1.14888465
1.14980141
1.15071270
1.15161936
1.15252126
1.15341853
1.15431045
1.15519835
1.15608150
1.15695940
1.15783200
1.15870059
1.15956389
1.16042255
1.16127595
1.16212541
1.16296957
1.16380794
1.16464289
1.16547268
1.16629783
1.16711845
1.16793443
1.16874590
1.16955221
1.17035390
1.17115110
1.17194375
1.17273128
1.17351370
1.17429167
1.17506563
1.17583508
1.17659946
1.17735934
1.17811366
1.17886457
1.17961050
1.18035191
1.18108890
1.18182035
1.18254839
1.18327149
1.18399016
1.18470434
1.18541314
1.18611801
1.18681847
1.18751348
1.18820514
1.18889189
1.18957426
1.19025180
1.19092492
1.19159417
1.19225812
1.19291822
1.19357344
1.19422388
1.19487096
1.19551228
1.19615019
1.19678383
1.19741223
1.19803680
1.19865708
1.19927215
1.19988386
1.20048998
1.20109315
1.20169071
1.20228451
1.20287359
1.20345930
1.20403952
1.20461638
1.20518816
1.20575611
1.20631905
1.20687864
1.20743320
1.20798440
1.20853018
1.20907261
1.20961007
1.21014416
1.21067291
1.21119794
1.21171919
1.21223552
1.21274816
1.21325624
1.21375987
1.21426011
1.21475554
1.21524650
1.21573411
1.21621690
1.21669563
1.21717096
1.21764119
1.21810772
1.21857020
1.21902832
1.21948237
1.21993205
1.22037838
1.22082005
1.22125768
1.22169101
1.22212095
1.22254629
1.22296764
1.22338501
1.22379868
1.22420780
1.22461295
1.22501414
1.22541109
1.22580440
1.22619376
1.22657890
1.22696012
1.22733716
1.22771026
1.22807949
1.22844479
1.22880622
1.22916347
1.22951737
1.22986688
1.23021227
1.23055405
1.23089170
1.23122552
1.23155525
1.23188139
1.23220346
1.23252172
1.23283615
1.23314676
1.23345332
1.23375632
1.23405532
1.23435029
1.23464171
1.23492912
1.23521279
1.23549266
1.23576880
1.23604078
1.23630922
1.23657392
1.23683489
1.23709193
1.23734526
1.23759506
1.23784095
1.23808278
1.23832111
1.23855576
1.23878670
1.23901397
1.23923758
1.23945703
1.23967329
1.23988560
1.24009440
1.24029957
1.24050064
1.24069839
1.24089250
1.24108301
1.24126962
1.24145277
1.24163231
1.24180801
1.24198024
1.24214902
1.24231386
1.24247536
1.24263320
1.24278735
1.24293807
1.24308524
1.24322877
1.24336876
1.24350522
1.24363806
1.24376749
1.24389322
1.24401554
1.24413445
1.24424960
1.24436144
1.24446964
1.24457444
1.24467569
1.24477356
1.24486791
1.24495872
1.24504618
1.24513011
1.24521069
1.24528772
1.24536138
1.24543157
1.24549831
1.24556175
1.24562169
1.24567829
1.24573146
1.24578125
1.24582763
1.24587065
1.24591037
1.24594664
1.24597962
1.24600920
1.24603543
1.24605838
1.24607795
1.24609420
1.24610716
1.24611679
1.24612312
1.24612615
1.24612589
1.24612234
1.24611551
1.24610541
1.24609205
1.24607543
1.24605553
1.24603240
1.24600604
1.24597645
1.24594357
1.24590754
1.24586826
1.24582580
1.24578012
1.24573116
1.24567912
1.24562384
1.24556542
1.24550381
1.24543908
1.24537108
1.24529996
1.24522573
1.24514835
1.24506788
1.24498421
1.24489746
1.24480759
1.24471458
1.24461854
1.24451922
1.24441695
1.24431157
1.24420310
1.24409154
1.24397697
1.24385931
1.24373859
1.24361479
1.24348803
1.24335821
1.24322534
1.24308940
1.24295044
1.24280855
1.24266373
1.24251590
1.24236493
1.24221095
1.24205407
1.24189420
1.24173132
1.24156544
1.24139671
1.24122502
1.24105047
1.24087281
1.24069233
1.24050875
1.24032236
1.24013302
1.23994103
1.23974596
1.23954781
1.23934687
1.23914303
1.23893657
1.23872707
1.23851448
1.23829917
1.23808129
1.23786018
1.23763637
1.23740968
1.23718029
1.23694804
1.23671277
1.23647497
1.23623416
1.23599051
1.23574440
1.23549524
1.23524309
1.23498870
1.23473108
1.23447066
1.23420783
1.23394201
1.23367380
1.23340238
1.23312819
1.23285163
1.23257208
1.23229021
1.23200513
1.23171774
1.23142737
1.23113449
1.23083863
1.23054050
1.23023939
1.22993581
1.22962928
1.22932049
1.22900852
1.22869432
1.22837720
1.22805761
1.22773510
1.22741040
1.22708327
1.22675271
1.22642025
1.22608461
1.22574684
1.22540668
1.22506308
1.22471765
1.22436904
1.22401832
1.22366528
1.22330907
1.22295049
1.22258962
1.22222583
1.22185976
1.22149107
1.22112008
1.22074625
1.22037011
1.21999139
1.21960981
1.21922627
1.21884017
1.21845153
1.21806034
1.21766630
1.21727034
1.21687185
1.21647113
1.21606760
1.21566124
1.21525298
1.21484224
1.21442898
1.21401355
1.21359533
1.21317460
1.21275172
1.21232640
1.21189892
1.21146864
1.21103624
1.21060138
1.21016443
1.20972469
1.20928282
1.20883856
1.20839187
1.20794308
1.20749119
1.20703761
1.20658158
1.20612319
1.20566237
1.20519955
1.20473469
1.20426707
1.20379708
1.20332509
1.20285074
1.20237369
1.20189496
1.20141354
1.20092977
1.20044404
1.19995598
1.19946559
1.19897287
1.19847858
1.19798162
1.19748231
1.19698074
1.19647722
1.19597104
1.19546294
1.19495296
1.19444033
1.19392580
1.19340858
1.19288951
1.19236900
1.19184542
1.19131958
1.19079191
1.19026238
1.18973024
1.18919629
1.18865969
1.18812168
1.18758108
1.18703825
1.18649405
1.18594678
1.18539779
1.18484700
1.18429359
1.18373848
1.18318156
1.18262166
1.18205999
1.18149706
1.18093108
1.18036384
1.17979401
1.17922199
1.17864833
1.17807255
1.17749505
1.17691501
1.17633332
1.17574901
1.17516310
1.17457551
1.17398493
1.17339362
1.17279928
1.17220380
1.17160534
1.17100615
1.17040403
1.16980027
1.16919489
1.16858702
1.16797759
1.16736562
1.16675259
1.16613655
1.16551941
1.16490074
1.16427911
1.16365596
1.16303075
1.16240409
1.16177537
1.16114415
1.16051195
1.15987782
1.15924114
1.15860300
1.15796340
1.15732080
1.15667727
1.15603178
1.15538433
1.15473442
1.15408355
1.15343080
1.15277606
1.15211891
1.15146090
1.15080091
1.15013901
1.14947525
1.14880900
1.14814143
1.14747245
1.14680158
1.14612882
1.14545363
1.14477765
1.14409925
1.14341953
1.14273850
1.14205505
1.14137025
1.14068310
1.13999410
1.13930382
1.13861170
1.13791825
1.13722297
1.13652593
1.13582701
1.13512685
1.13442437
1.13372059
1.13301502
1.13230765
1.13159906
1.13088817
1.13017596
1.12946203
1.12874633
1.12802944
1.12731021
1.12658980
1.12586758
1.12514367
1.12441860
1.12369232
1.12296372
1.12223345
1.12150139
1.12076767
1.12003277
1.11929615
1.11855789
1.11781846
1.11707734
1.11633392
1.11558941
1.11484321
1.11409534
1.11334700
1.11259633
1.11184405
1.11109010
1.11033567
1.10957841
1.10882006
1.10805951
1.10729911
1.10653590
1.10577100
1.10500515
1.10423824
1.10346909
1.10269895
1.10192721
1.10115386
1.10037891
1.09960300
1.09882486
1.09804577
1.09726574
1.09648349
1.09569967
1.09491486
1.09412854
1.09334125
1.09255182
1.09176142
1.09096889
1.09017541
1.08938103
1.08858389
1.08778710
1.08698749
1.08618766
1.08538501
1.08458281
1.08377780
1.08297194
1.08216458
1.08135639
1.08054539
1.07973483
1.07892152
1.07810807
1.07729308
1.07647535
1.07565810
1.07483812
1.07401796
1.07319635
1.07237202
1.07154820
1.07072159
1.06989491
1.06906680
1.06823597
1.06740562
1.06657325
1.06573947
1.06490497
1.06406906
1.06323107
1.06239238
1.06155291
1.06071213
1.05986859
1.05902567
1.05818069
1.05733511
1.05648670
1.05563903
1.05478937
1.05393829
1.05308656
1.05223209
1.05137839
1.05052265
1.04966558
1.04880790
1.04794889
1.04708715
1.04622622
1.04536321
1.04449967
1.04363483
1.04276863
1.04190121
1.04103242
1.04016315
1.03929109
1.03841926
1.03754680
1.03667237
1.03579739
1.03492050
1.03404301
1.03316500
1.03228502
1.03140445
1.03052206
1.02963902
1.02875483
1.02787014
1.02698350
1.02609631
1.02520797
1.02431843
1.02342908
1.02253707
1.02164467
1.02075100
1.01985622
1.01896019
1.01806371
1.01716540
1.01626658
1.01536801
1.01446694
1.01356531
1.01266193
1.01175807
1.01085299
1.00994834
1.00904106
1.00813339
1.00722452
1.00631460
1.00540424
1.00449283
1.00357949
1.00266586
1.00175182
1.00083599
0.99991974
0.99900317
0.99808475
0.99716448
0.99624466
0.99532376
0.99440179
0.99347875
0.99255542
0.99163025
0.99070557
0.98977830
0.98885067
0.98792285
0.98699322
0.98606247
0.98513232
0.98420029
0.98326801
0.98233401
0.98140047
0.98046445
0.97952889
0.97859155
0.97765322
0.97671467
0.97577512
0.97483537
0.97389307
0.97295215
0.97200868
0.97106581
0.97012189
0.96917552
0.96823055
0.96728296
0.96633530
0.96538668
0.96443783
0.96348805
0.96253661
0.96158575
0.96063238
0.95967974
0.95872611
0.95777077
0.95681611
0.95586054
0.95490247
0.95394509
0.95298763
0.95202766
0.95106833
0.95010820
0.94914558
0.94818449
0.94722165
0.94625882
0.94529343
0.94432888
0.94336419
0.94239785
0.94142992
0.94046269
0.93949461
0.93852578
0.93755685
0.93658546
0.93561486
0.93464345
0.93367122
0.93269817
0.93172505
0.93075038
0.92977491
0.92879945
0.92782320
0.92684690
0.92586907
0.92489120
0.92391262
0.92293319
0.92195380
0.92097291
0.91999199
0.91901031
0.91802796
0.91704560
0.91606083
0.91507697
0.91409236
0.91310785
0.91212177
0.91113579
0.91014900
0.90916157
0.90817342
0.90718456
0.90619490
0.90520544
0.90421528
0.90322434
0.90223278
0.90124045
0.90024826
0.89925630
0.89826275
0.89726851
0.89627360
0.89527886
0.89428353
0.89328661
0.89229148
0.89129409
0.89029688
0.88929819
0.88829969
0.88730140
0.88630239
0.88530198
0.88430178
0.88330172
0.88230028
0.88129813
0.88029545
0.87929377
0.87829063
0.87728698
0.87628349
0.87527854
0.87427386
0.87326944
0.87226358
0.87125637
0.87025097
0.86924346
0.86823606
0.86722903
0.86622058
0.86521320
0.86420364
0.86319352
0.86218456
0.86117412
0.86016485
0.85915340
0.85814306
0.85713055
0.85611829
0.85510722
0.85409400
0.85308103
0.85206755
0.85105442
0.85003993
0.84902579
0.84801116
0.84699689
0.84598213
0.84496516
0.84395020
0.84293312
0.84191730
0.84089927
0.83988328
0.83886596
0.83784739
0.83683001
0.83581227
0.83479225
0.83377438
0.83275442
0.83173479
0.83071560
0.82969511
0.82867505
0.82765457
0.82663453
0.82561233
0.82459145
0.82357016
0.82254759
0.82152549
0.82050376
0.81948173
0.81845842
0.81743551
0.81641230
0.81538949
0.81436630
0.81334107
0.81231712
0.81129289
0.81026908
0.80924491
0.80822038
0.80719382
0.80616858
0.80514377
0.80411792
0.80309242
0.80206667
0.80104059
0.80001505
0.79898830
0.79796202
0.79693374
0.79590690
0.79488054
0.79385308
0.79282610
0.79179802
0.79077043
0.78974342
0.78871533
0.78768685
0.78665897
0.78563081
0.78460245
0.78357372
0.78254560
0.78151633
0.78048936
0.77946044
0.77843125
0.77740182
0.77637301
0.77534297
0.77431367
0.77328411
0.77225512
0.77122509
0.77019651
0.76916690
0.76813698
0.76710683
0.76607655
0.76504685
0.76401783
0.76298771
0.76195738
0.76092693
0.75989789
0.75886784
0.75783681
0.75680629
0.75577746
0.75474666
0.75371657
0.75268542
0.75165667
0.75062606
0.74959519
0.74856604
0.74753574
0.74650448
0.74547565
0.74444489
0.74341407
0.74238481
0.74135451
0.74032407
0.73929448
0.73826378
0.73723473
0.73620467
0.73517360
0.73414499
0.73311458
0.73208584
0.73105521
0.73002626
0.72899622
0.72796797
0.72693783
0.72590930
0.72487898
0.72385028
0.72282069
0.72179272
0.72076289
0.71973477
0.71870578
0.71767753
0.71664833
0.71561996
0.71459153
0.71356395
0.71253631
0.71150774
0.71048002
0.70945315
0.70842446
0.70739744
0.70636958
0.70534259
0.70431638
0.70328845
0.70226221
0.70123604
0.70020887
0.69918358
0.69815730
0.69713191
0.69610572
0.69508034
0.69405497
0.69303051
0.69200427
0.69097984
0.68995543
0.68893105
0.68790580
0.68688236
0.68585888
0.68483552
0.68381220
0.68278803
0.68176471
0.68074243
0.67972011
0.67869793
0.67767573
0.67665368
0.67563249
0.67460968
0.67358864
0.67256767
0.67154679
0.67052687
0.66950615
0.66848641
0.66746676
0.66644720
0.66542775
0.66440928
0.66339092
0.66237177
0.66135442
0.66033639
0.65931847
0.65830147
0.65728380
0.65626713
0.65525051
0.65423491
0.65321865
0.65220332
0.65118733
0.65017229
0.64915828
0.64814443
0.64713072
0.64611628
0.64510298
0.64408976
0.64307750
0.64206460
0.64105366
0.64004200
0.63903052
0.63801913
0.63700802
0.63599708
0.63498803
0.63397837
0.63296891
0.63195955
0.63095218
0.62994332
0.62893547
0.62792791
0.62692137
0.62591505
0.62490806
0.62390306
0.62289741
0.62189109
0.62088599
0.61988271
0.61887887
0.61787439
0.61687193
0.61586882
0.61486765
0.61386505
0.61286270
0.61186318
0.61086135
0.60986235
0.60886194
0.60786172
0.60686353
0.60586483
0.60486720
0.60386897
0.60287279
0.60187522
0.60087962
0.59988343
0.59888842
0.59789283
0.59689930
0.59590432
0.59491141
0.59391793
0.59292556
0.59193360
0.59094195
0.58995142
0.58896042
0.58797055
0.58698022
0.58599189
0.58500311
0.58401458
0.58302727
0.58203952
0.58105292
0.58006754
0.57908085
0.57809618
0.57711188
0.57612706
0.57514436
0.57416116
0.57317912
0.57219666
0.57121546
0.57023465
0.56925334
0.56827408
0.56729529
0.56631682
0.56533882
0.56436035
0.56338394
0.56240716
0.56143156
0.56045637
0.55948081
0.55850646
0.55753338
0.55656074
0.55558851
0.55461671
0.55364457
0.55267364
0.55170392
0.55073395
0.54976511
0.54879767
0.54782982
0.54686241
0.54589623
0.54493060
0.54396533
0.54300062
0.54203637
0.54107336
0.54011005
0.53914799
0.53818640
0.53722538
0.53626561
0.53530546
0.53434667
0.53338836
0.53243054
0.53147331
0.53051725
0.52956102
0.52860597
0.52765152
0.52669757
0.52574414
0.52479122
0.52384044
0.52288941
0.52193891
0.52098885
0.52003940
0.51909133
0.51814457
0.51719749
0.51625103
0.51530503
0.51435958
0.51341637
0.51247295
0.51152915
0.51058675
0.50964492
0.50870533
0.50776547
0.50682533
0.50588744
0.50494929
0.50401255
0.50307555
0.50214073
0.50120489
0.50027049
0.49933826
0.49840504
0.49747232
0.49654196
0.49561128
0.49468204
0.49375265
0.49282379
0.49189721
0.49097049
0.49004513
0.48911957
0.48819462
0.48727113
0.48634827
0.48542686
0.48450443
0.48358513
0.48266480
0.48174594
0.48082764
0.47991090
0.47899315
0.47807845
0.47716283
0.47624870
0.47533514
0.47442307
0.47351010
0.47260018
0.47169019
0.47077997
0.46987206
0.46896402
0.46805755
0.46715169
0.46624569
0.46534202
0.46443740
0.46353511
0.46263351
0.46173180
0.46083234
0.45993367
0.45903488
0.45813680
0.45724017
0.45634434
0.45544921
0.45455473
0.45366186
0.45276964
0.45187741
0.45098664
0.45009742
0.44920811
0.44831963
0.44743261
0.44654634
0.44566081
0.44477683
0.44389280
0.44300952
0.44212781
0.44124684
0.44036664
0.43948801
0.43861013
0.43773215
0.43685502
0.43597946
0.43510539
0.43423139
0.43335896
0.43248723
0.43161629
0.43074622
0.42987687
0.42900909
0.42814141
0.42727523
0.42640985
0.42554536
0.42468238
0.42381943
0.42295807
0.42209752
0.42123780
0.42037889
0.41952081
0.41866425
0.41780782
0.41695299
0.41609900
0.41524733
0.41439501
0.41354345
0.41269359
0.41184450
0.41099633
0.41014894
0.40930247
0.40845833
0.40761427
0.40677115
0.40592881
0.40508734
0.40424750
0.40340853
0.40257044
0.40173245
0.40089611
0.40006217
0.39922759
0.39839465
0.39756184
0.39673137
0.39590111
0.39507249
0.39424470
0.39341788
0.39259121
0.39176688
0.39094278
0.39012026
0.38929865
0.38847804
0.38765751
0.38683941
0.38602154
0.38520596
0.38438995
0.38357479
0.38276206
0.38194952
0.38113941
0.38032874
0.37951901
0.37871164
0.37790387
0.37709840
0.37629320
0.37549036
0.37468707
0.37388622
0.37308485
0.37228585
0.37148714
0.37069080
0.36989396
0.36909963
0.36830620
0.36751229
0.36672155
0.36593040
0.36514089
0.36435309
0.36356483
0.36277902
0.36199347
0.36121036
0.36042753
0.35964570
0.35886488
0.35808642
0.35730689
0.35653052
0.35575438
0.35497932
0.35420528
0.35343290
0.35266226
0.35189129
0.35112205
0.35035449
0.34958795
0.34882110
0.34805663
0.34729391
0.34653152
0.34576954
0.34501009
0.34425154
0.34349404
0.34273829
0.34198290
0.34122786
0.34047529
0.33972370
0.33897324
0.33822386
0.33747616
0.33672891
0.33598343
0.33523895
0.33449493
0.33375261
0.33301144
0.33227198
0.33153367
0.33079638
0.33006018
0.32932508
0.32859114
0.32785891
0.32712710
0.32639707
0.32566815
0.32494034
0.32421431
0.32348872
0.32276492
0.32204224
0.32132060
0.32060016
0.31988150
0.31916391
0.31844751
0.31773157
0.31701737
0.31630436
0.31559310
0.31488237
0.31417404
0.31346620
0.31275956
0.31205401
0.31134961
0.31064643
0.30994565
0.30924537
0.30854625
0.30784829
0.30715150
0.30645717
0.30576272
0.30507008
0.30437861
0.30368890
0.30299979
0.30231250
0.30162633
0.30094140
0.30025766
0.29957569
0.29889433
0.29821410
0.29753634
0.29685920
0.29618320
0.29550903
0.29483550
0.29416311
0.29349319
0.29282329
0.29215579
0.29148887
0.29082318
0.29015995
0.28949670
0.28883585
0.28817567
0.28751733
0.28685961
0.28620374
0.28554904
0.28489625
0.28424347
0.28359310
0.28294342
0.28229614
0.28164896
0.28100418
0.28035950
0.27971722
0.27907566
0.27843649
0.27779799
0.27716075
0.27652478
0.27589013
0.27525728
0.27462625
0.27399541
0.27336639
0.27273918
0.27211271
0.27148812
0.27086481
0.27024278
0.26962199
0.26900313
0.26838439
0.26776864
0.26715366
