corrn_curve_cubic
0.65502490
0.65473018
0.65443495
0.65414003
0.65384461
0.65354952
0.65325431
0.65295902
0.65266362
0.65236811
0.65207294
0.65177727
0.65148191
0.65118602
0.65089046
0.65059481
0.65029906
0.65000321
0.64970768
0.64941164
0.64911593
0.64881970
0.64852421
0.64822820
0.64793211
0.64763590
0.64733959
0.64704362
0.64674715
0.64645098
0.64615473
0.64585837
0.64556192
0.64526538
0.64496915
0.64467241
0.64437601
0.64407951
0.64378249
0.64348578
0.64318900
0.64289253
0.64259554
0.64229847
0.64200171
0.64170487
0.64140792
0.64111045
0.64081375
0.64051652
0.64021920
0.63992221
0.63962470
0.63932750
0.63903024
0.63873287
0.63843539
0.63813784
0.63784017
0.63754243
0.63724544
0.63694749
0.63664987
0.63635217
0.63605395
0.63575649
0.63545850
0.63516085
0.63486268
0.63456482
0.63426689
0.63396886
0.63367072
0.63337251
0.63307421
0.63277622
0.63247770
0.63217955
0.63188129
0.63158293
0.63128406
0.63098593
0.63068731
0.63038858
0.63008975
0.62979127
0.62949311
0.62919400
0.62889524
0.62859639
0.62829742
0.62799879
0.62769966
0.62740085
0.62710197
0.62680275
0.62650366
0.62620470
0.62590523
0.62560630
0.62530706
0.62500795
0.62470830
0.62440900
0.62410959
0.62380989
0.62351054
0.62321107
0.62291175
0.62261210
0.62231215
0.62201253
0.62171285
0.62141327
0.62111337
0.62081339
0.62051353
0.62021361
0.61991377
0.61961386
0.61931385
0.61901332
0.61871335
0.61841308
0.61811291
0.61781289
0.61751254
0.61721234
0.61691202
0.61661164
0.61631114
0.61601078
0.61571010
0.61540935
0.61510871
0.61480820
0.61450738
0.61420669
0.61390591
0.61360526
0.61330428
0.61300345
0.61270295
0.61240194
0.61210103
0.61180006
0.61149898
0.61119783
0.61089656
0.61059543
0.61029423
0.60999292
0.60969151
0.60939024
0.60908911
0.60878786
0.60848631
0.60818468
0.60788319
0.60758160
0.60728035
0.60697858
0.60667692
0.60637520
0.60607336
0.60577189
0.60546989
0.60516801
0.60486604
0.60456400
0.60426228
0.60396027
0.60365816
0.60335642
0.60305414
0.60275199
0.60244975
0.60214763
0.60184544
0.60154293
0.60124077
0.60093829
0.60063596
0.60033376
0.60003101
0.59972885
0.59942617
0.59912338
0.59882096
0.59851822
0.59821539
0.59791292
0.59760991
0.59730748
0.59700429
0.59670170
0.59639877
0.59609600
0.59579268
0.59548994
0.59518665
0.59488373
0.59458052
0.59427765
0.59397424
0.59367120
0.59336761
0.59306461
0.59276108
0.59245791
0.59215419
0.59185108
0.59154762
0.59124387
0.59094049
0.59063677
0.59033321
0.59002977
0.58972581
0.58942220
0.58911872
0.58881471
0.58851106
0.58820732
0.58790306
0.58759938
0.58729538
0.58699130
0.58668733
0.58638330
0.58607941
0.58577498
0.58547089
0.58516674
0.58486271
0.58455816
0.58425395
0.58394966
0.58364529
0.58334061
0.58303629
0.58273188
0.58242739
0.58212304
0.58181837
0.58151361
0.58120900
0.58090430
0.58059973
0.58029509
0.57999034
0.57968552
0.57938060
0.57907584
0.57877054
0.57846559
0.57816079
0.57785566
0.57755071
0.57724564
0.57694073
0.57663549
0.57633040
0.57602520
0.57571994
0.57541459
0.57510939
0.57480387
0.57449847
0.57419325
0.57388768
0.57358228
0.57327678
0.57297121
0.57266553
0.57236023
0.57205461
0.57174891
0.57144313
0.57113749
0.57083176
0.57052572
0.57021982
0.56991431
0.56960848
0.56930254
0.56899654
0.56869045
0.56838425
0.56807867
0.56777233
0.56746635
0.56716007
0.56685368
0.56654791
0.56624159
0.56593521
0.56562872
0.56532261
0.56501618
0.56470967
0.56440352
0.56409708
0.56379032
0.56348415
0.56317745
0.56287088
0.56256448
0.56225774
0.56195094
0.56164427
0.56133751
0.56103069
0.56072400
0.56041699
0.56011037
0.55980343
0.55949617
0.55918953
0.55888234
0.55857551
0.55826839
0.55796141
0.55765412
0.55734696
0.55703997
0.55673264
0.55642549
0.55611799
0.55581088
0.55550348
0.55519620
0.55488908
0.55458140
0.55427412
0.55396651
0.55365905
0.55335152
0.55304413
0.55273664
0.55242862
0.55212123
0.55181328
0.55150569
0.55119826
0.55089006
0.55058247
0.55027479
0.54996658
0.54965897
0.54935105
0.54904283
0.54873498
0.54842725
0.54811879
0.54781092
0.54750296
0.54719493
0.54688659
0.54657839
0.54627034
0.54596222
0.54565355
0.54534548
0.54503709
0.54472889
0.54442058
0.54411171
0.54380349
0.54349494
0.54318654
0.54287805
0.54256973
0.54226085
0.54195212
0.54164355
0.54133488
0.54102638
0.54071757
0.54040889
0.54010015
0.53979131
0.53948265
0.53917341
0.53886458
0.53855566
0.53824665
0.53793758
0.53762865
0.53731964
0.53701055
0.53670137
0.53639236
0.53608326
0.53577408
0.53546480
0.53515547
0.53484629
0.53453724
0.53422814
0.53391870
0.53360920
0.53329984
0.53299041
0.53268089
0.53237128
0.53206184
0.53175234
0.53144297
0.53113328
0.53082376
0.53051391
0.53020423
0.52989446
0.52958507
0.52927539
0.52896538
0.52865552
0.52834559
0.52803605
0.52772620
0.52741602
0.52710602
0.52679639
0.52648621
0.52617618
0.52586608
0.52555614
0.52524612
0.52493581
0.52462585
0.52431559
0.52400525
0.52369532
0.52338504
0.52307447
0.52276454
0.52245402
0.52214345
0.52183327
0.52152278
0.52121268
0.52090201
0.52059129
0.52028095
0.51997029
0.51966003
0.51934921
0.51903880
0.51872807
0.51841750
0.51810661
0.51779613
0.51748530
0.51717466
0.51686370
0.51655312
0.51624200
0.51593127
0.51562024
0.51530935
0.51499816
0.51468736
0.51437672
0.51406527
0.51375448
0.51344312
0.51313217
0.51282139
0.51250980
0.51219886
0.51188735
0.51157623
0.51126531
0.51095381
0.51064246
0.51033130
0.51001980
0.50970848
0.50939706
0.50908582
0.50877427
0.50846286
0.50815138
0.50783958
0.50752819
0.50721672
0.50690517
0.50659355
0.50628160
0.50597007
0.50565846
0.50534700
0.50503524
0.50472315
0.50441145
0.50409971
0.50378786
0.50347618
0.50316420
0.50285212
0.50254021
0.50222825
0.50191643
0.50160429
0.50129232
0.50098027
0.50066839
0.50035619
0.50004414
0.49973203
0.49941985
0.49910781
0.49879523
0.49848306
0.49817080
0.49785848
0.49754606
0.49723384
0.49692176
0.49660936
0.49629689
0.49598458
0.49567220
0.49535952
0.49504722
0.49473461
0.49442192
0.49410941
0.49379682
0.49348416
0.49317142
0.49285908
0.49254644
0.49223370
0.49192090
0.49160826
0.49129531
0.49098252
0.49066989
0.49035697
0.49004420
0.48973110
0.48941818
0.48910567
0.48879260
0.48847945
0.48816647
0.48785365
0.48754052
0.48722757
0.48691429
0.48660141
0.48628824
0.48597499
0.48566213
0.48534871
0.48503548
0.48472240
0.48440900
0.48409580
0.48378272
0.48346912
0.48315567
0.48284265
0.48252905
0.48221588
0.48190238
0.48158878
0.48127538
0.48096191
0.48064859
0.48033497
0.48002153
0.47970774
0.47939414
0.47908070
0.47876671
0.47845338
0.47813946
0.47782598
0.47751194
0.47719854
0.47688460
0.47657082
0.47625719
0.47594326
0.47562951
0.47531544
0.47500179
0.47468757
0.47437375
0.47406011
0.47374592
0.47343190
0.47311779
0.47280388
0.47248987
0.47217554
0.47186163
0.47154768
0.47123338
0.47091926
0.47060532
0.47029080
0.46997671
0.46966254
0.46934831
0.46903375
0.46871959
0.46840539
0.46809109
0.46777649
0.46746232
0.46714805
0.46683372
0.46651933
0.46620459
0.46589006
0.46557568
0.46526124
0.46494671
0.46463187
0.46431745
0.46400271
0.46368816
0.46337378
0.46305908
0.46274453
0.46242968
0.46211476
0.46180002
0.46148521
0.46117056
0.46085583
0.46054106
0.46022619
0.45991150
0.45959651
0.45928168
0.45896677
0.45865180
0.45833700
0.45802191
0.45770695
0.45739194
0.45707686
0.45676196
0.45644674
0.45613169
0.45581656
0.45550137
0.45518637
0.45487153
0.45455636
0.45424114
0.45392583
0.45361047
0.45329527
0.45298000
0.45266469
0.45234953
0.45203430
0.45171874
0.45140337
0.45108793
0.45077242
0.45045734
0.45014192
0.44982645
0.44951091
0.44919578
0.44888010
0.44856457
0.44824875
0.44793360
0.44761788
0.44730208
0.44698648
0.44667105
0.44635528
0.44603971
0.44572406
0.44540834
0.44509256
0.44477695
0.44446102
0.44414528
0.44382973
0.44351384
0.44319789
0.44288210
0.44256626
0.44225059
0.44193461
0.44161879
0.44130268
0.44098672
0.44067095
0.44035462
0.44003897
0.43972274
0.43940695
0.43909057
0.43877490
0.43845864
0.43814258
0.43782644
0.43751049
0.43719395
0.43687809
0.43656167
0.43624570
0.43592964
0.43561301
0.43529707
0.43498056
0.43466447
0.43434832
0.43403160
0.43371557
0.43339895
0.43308278
0.43276653
0.43244973
0.43213358
0.43181714
0.43150062
0.43118429
0.43086789
0.43055117
0.43023463
0.42991826
0.42960185
0.42928485
0.42896853
0.42865188
0.42833545
0.42801841
0.42770208
0.42738544
0.42706871
0.42675218
0.42643505
0.42611863
0.42580189
0.42548508
0.42516846
0.42485177
0.42453449
0.42421792
0.42390100
0.42358430
0.42326753
0.42295067
0.42263376
0.42231676
0.42199998
0.42168258
0.42136566
0.42104891
0.42073183
0.42041494
0.42009775
0.41978073
0.41946390
0.41914674
0.41882975
0.41851248
0.41819536
0.41787819
0.41756121
0.41724391
0.41692677
0.41660960
0.41629235
0.41597554
0.41565813
0.41534094
0.41502366
0.41470634
0.41438893
0.41407171
0.41375419
0.41343683
0.41311991
0.41280245
0.41248513
0.41216753
0.41185010
0.41153258
0.41121555
0.41089792
0.41058049
0.41026296
0.40994539
0.40962799
0.40931056
0.40899276
0.40867519
0.40835779
0.40804008
0.40772255
0.40740521
0.40708754
0.40676954
0.40645201
0.40613440
0.40581673
0.40549899
0.40518145
0.40486358
0.40454617
0.40422817
0.40391033
0.40359273
0.40327479
0.40295675
0.40263921
0.40232131
0.40200361
0.40168560
0.40136803
0.40104989
0.40073219
0.40041416
0.40009606
0.39977816
0.39946020
0.39914243
0.39882407
0.39850643
0.39818820
0.39787044
0.39755258
0.39723415
0.39691646
0.39659814
0.39628004
0.39596188
0.39564390
0.39532584
0.39500749
0.39468957
0.39437106
0.39405304
0.39373492
0.39341648
0.39309850
0.39278046
0.39246181
0.39214364
0.39182567
0.39150710
0.39118897
0.39087080
0.39055203
0.39023400
0.38991561
0.38959744
0.38927866
0.38896036
0.38864225
0.38832380
0.38800504
0.38768673
0.38736835
0.38704994
0.38673170
0.38641286
0.38609449
0.38577606
0.38545756
0.38513900
0.38482061
0.38450192
0.38418316
0.38386461
0.38354599
0.38322755
0.38290880
0.38259023
0.38227162
0.38195292
0.38163443
0.38131562
0.38099700
0.38067831
0.38035959
0.38004104
0.37972189
0.37940321
0.37908447
0.37876593
0.37844706
0.37812840
0.37780964
0.37749085
0.37717199
0.37685307
0.37653406
0.37621528
0.37589644
0.37557751
0.37525854
0.37493947
0.37462062
0.37430199
0.37398301
0.37366396
0.37334485
0.37302595
0.37270701
0.37238771
0.37206912
0.37174996
0.37143101
0.37111173
0.37079265
0.37047378
0.37015481
0.36983554
0.36951648
0.36919760
0.36887841
0.36855913
0.36823982
0.36792095
0.36760175
0.36728252
0.36696347
0.36664408
0.36632490
0.36600593
0.36568662
0.36536701
0.36504809
0.36472863
0.36440931
0.36409024
0.36377082
0.36345186
0.36313233
0.36281273
0.36249361
0.36217413
0.36185513
0.36153555
0.36121642
0.36089672
0.36057720
0.36025815
0.35993854
0.35961910
0.35929960
0.35898031
0.35866068
0.35834127
0.35802179
0.35770252
0.35738319
0.35706326
0.35674405
0.35642426
0.35610495
0.35578504
0.35546586
0.35514634
0.35482651
0.35450714
0.35418774
0.35386770
0.35354842
0.35322855
0.35290887
0.35258941
0.35226960
0.35195001
0.35163036
0.35131092
0.35099087
0.35067130
0.35035168
0.35003171
0.34971196
0.34939240
0.34907280
0.34875287
0.34843312
0.34811333
0.34779374
0.34747408
0.34715384
0.34683405
0.34651424
0.34619461
0.34587492
0.34555516
0.34523483
0.34491496
0.34459527
0.34427530
0.34395549
0.34363564
0.34331573
0.34299604
0.34267602
0.34235617
0.34203575
0.34171581
0.34139607
0.34107601
0.34075614
0.34043596
0.34011597
0.33979619
0.33947610
0.33915593
0.33883597
0.33851595
0.33819590
0.33787576
0.33755583
0.33723557
0.33691605
0.33659594
0.33627577
0.33595555
0.33563553
0.33531516
0.33499502
0.33467483
0.33435483
0.33403451
0.33371466
0.33339450
0.33307426
0.33275395
0.33243362
0.33211347
0.33179353
0.33147326
0.33115293
0.33083257
0.33051265
0.33019242
0.32987187
0.32955149
0.32923164
0.32891116
0.32859091
0.32827032
0.32795047
0.32763004
0.32730952
0.32698952
0.32666915
0.32634848
0.32602855
0.32570801
0.32538744
0.32506733
0.32474689
0.32442639
0.32410613
0.32378551
0.32346539
0.32314492
0.32282413
0.32250407
0.32218343
0.32186329
0.32154253
0.32122227
0.32090165
0.32058155
0.32026083
0.31994058
0.31961975
0.31929938
0.31897871
0.31865851
0.31833769
0.31801736
0.31769673
0.31737629
0.31705552
0.31673496
0.31641435
0.31609395
0.31577350
0.31545271
0.31513214
0.31481179
0.31449082
0.31417032
0.31384952
0.31352893
0.31320854
0.31288756
0.31256705
0.31224651
0.31192561
0.31160523
0.31128449
0.31096397
0.31064314
0.31032251
0.31000181
0.30968134
0.30936025
0.30903966
0.30871901
0.30839831
0.30807726
0.30775672
0.30743609
0.30711544
0.30679472
0.30647367
0.30615281
0.30583220
0.30551151
0.30519078
0.30486997
0.30454913
0.30422849
0.30390726
0.30358650
0.30326568
0.30294480
0.30262415
0.30230316
0.30198239
0.30166157
0.30134069
0.30101975
0.30069903
0.30037826
0.30005715
0.29973652
0.29941557
0.29909457
0.29877376
0.29845265
0.29813175
0.29781078
0.29749002
0.29716896
0.29684809
0.29652691
0.29620593
0.29588517
0.29556436
0.29524349
0.29492228
0.29460132
0.29428028
0.29395944
0.29363828
0.29331764
0.29299665
0.29267561
0.29235448
0.29203332
0.29171211
0.29139137
0.29107033
0.29074923
0.29042804
0.29010737
0.28978609
0.28946502
0.28914392
0.28882302
0.28850206
0.28818076
0.28785997
0.28753884
0.28721737
0.28689616
0.28657540
0.28625433
0.28593292
0.28561202
0.28529078
0.28497003
0.28464867
0.28432727
0.28400663
0.28368511
0.28336435
0.28304300
0.28272157
0.28240065
0.28207942
0.28175839
0.28143701
0.28111615
0.28079470
0.28047372
0.28015241
0.27983133
0.27950991
0.27918900
0.27886746
0.27854644
0.27822508
0.27790392
0.27758273
0.27726148
0.27694044
0.27661908
0.27629793
0.27597646
0.27565548
0.27533419
0.27501282
0.27469167
0.27437021
0.27404895
0.27372793
0.27340630
0.27308516
0.27276397
0.27244244
0.27212142
0.27180006
0.27147891
0.27115744
0.27083620
0.27051491
0.27019327
0.26987213
0.26955095
0.26922970
0.26890842
0.26858679
0.26826566
0.26794421
0.26762297
0.26730167
0.26698006
0.26665865
0.26633747
0.26601624
0.26569496
0.26537362
0.26505196
0.26473051
0.26440927
0.26408773
0.26376638
0.26344528
0.26312385
0.26280236
0.26248107
0.26215976
0.26183836
0.26151694
0.26119547
0.26087419
0.26055261
0.26023123
0.25990980
0.25958834
0.25926708
0.25894548
0.25862412
0.25830270
0.25798123
0.25765973
0.25733841
0.25701681
0.25669538
0.25637392
0.25605242
0.25573085
0.25540924
0.25508811
0.25476668
0.25444519
0.25412362
0.25380202
0.25348065
0.25315950
0.25283800
0.25251647
0.25219487
0.25187321
0.25155207
0.25123062
0.25090880
0.25058721
0.25026557
0.24994446
0.24962300
0.24930120
0.24897992
0.24865830
0.24833692
0.24801520
0.24769397
0.24737214
0.24705054
0.24672944
0.24640774
0.24608595
0.24576472
0.24544312
0.24512175
0.24480008
0.24447831
0.24415708
0.24383553
0.24351419
0.24319251
0.24287077
0.24254927
0.24222772
0.24190640
0.24158445
0.24126332
0.24094155
0.24062003
0.24029842
0.23997708
0.23965510
0.23933391
0.23901212
0.23869057
0.23836893
0.23804754
0.23772553
0.23740432
0.23708280
0.23676090
0.23643953
0.23611782
0.23579637
0.23547484
0.23515297
0.23483163
0.23450966
0.23418821
0.23386671
0.23354487
0.23322353
0.23290217
0.23258046
0.23225870
0.23193716
0.23161558
0.23129396
0.23097225
0.23065082
0.23032930
0.23000747
0.22968585
0.22936446
0.22904274
0.22872099
0.22839945
0.22807786
0.22775622
0.22743482
0.22711307
0.22679127
0.22646972
0.22614811
0.22582645
0.22550503
0.22518355
0.22486171
0.22453984
0.22421821
0.22389680
0.22357507
0.22325358
0.22293201
0.22261039
0.22228875
0.22196702
0.22164554
0.22132374
0.22100215
0.22068052
0.22035886
0.22003741
0.21971562
0.21939407
0.21907247
0.21875082
0.21842912
0.21810736
0.21778582
0.21746396
0.21714235
0.21682068
0.21649952
0.21617776
0.21585591
0.21553433
0.21521268
0.21489100
0.21456924
0.21424746
0.21392619
0.21360457
0.21328293
0.21296121
0.21263944
0.21231791
0.21199634
0.21167471
0.21135274
0.21103101
0.21070981
0.21038798
0.21006640
0.20974446
0.20942304
0.20910130
0.20877981
0.20845823
0.20813664
0.20781470
0.20749326
0.20717152
0.20684998
0.20652840
0.20620680
0.20588482
0.20556338
0.20524163
0.20492035
0.20459850
0.20427656
0.20395517
0.20363343
0.20331223
0.20299039
0.20266850
0.20234712
0.20202516
0.20170368
0.20138188
0.20106060
0.20073870
0.20041735
0.20009535
0.19977387
0.19945207
0.19913078
0.19880885
0.19848750
0.19816606
0.19784398
0.19752274
0.19720089
0.19687925
0.19655786
0.19623583
0.19591434
0.19559251
0.19527122
0.19494958
0.19462790
0.19430616
0.19398494
0.19366281
0.19334151
0.19301985
0.19269816
0.19237642
0.19205490
0.19173363
0.19141175
0.19109011
0.19076869
0.19044723
0.19012514
0.18980358
0.18948226
0.18916059
0.18883861
0.18851720
0.18819569
0.18787413
0.18755281
0.18723115
0.18690914
0.18658768
0.18626613
0.18594457
0.18562296
0.18530157
0.18497986
0.18465841
0.18433687
0.18401501
0.18369338
0.18337173
0.18305029
0.18272884
0.18240731
0.18208573
0.18176410
0.18144245
0.18112102
0.18079924
0.18047772
0.18015614
0.17983452
0.17951315
0.17919143
0.17886996
0.17854844
0.17822684
0.17790523
0.17758386
0.17726242
0.17694096
0.17661915
0.17629756
0.17597596
0.17565457
0.17533287
0.17501169
0.17469016
0.17436861
0.17404698
0.17372531
0.17340361
0.17308244
0.17276092
0.17243935
0.17211774
0.17179607
0.17147496
0.17115320
0.17083169
0.17051013
0.17018880
0.16986715
0.16954575
0.16922427
0.16890277
0.16858123
0.16825991
0.16793827
0.16761655
0.16729539
0.16697391
0.16665235
0.16633104
0.16600941
0.16568771
0.16536656
0.16504479
0.16472355
0.16440196
0.16408031
0.16375923
0.16343749
0.16311628
0.16279475
0.16247348
0.16215185
0.16183048
0.16150903
0.16118787
0.16086605
0.16054476
0.16022315
0.15990207
0.15958037
0.15925919
0.15893740
0.15861612
0.15829453
0.15797347
0.15765206
0.15733060
0.15700909
0.15668757
0.15636627
0.15604519
0.15572353
0.15540209
0.15508087
0.15475934
0.15443806
0.15411673
0.15379536
0.15347391
0.15315274
0.15283093
0.15250994
0.15218864
