corrn_curve_quadratic
-1.43173555
-1.42580905
-1.41988157
-1.41396942
-1.40805630
-1.40215892
-1.39626827
-1.39038521
-1.38450890
-1.37863975
-1.37278625
-1.36693185
-1.36109265
-1.35525214
-1.34942725
-1.34360950
-1.33779890
-1.33199544
-1.32620711
-1.32041794
-1.31464429
-1.30886940
-1.30311796
-1.29736527
-1.29162012
-1.28588168
-1.28015037
-1.27443450
-1.26871784
-1.26301619
-1.25732164
-1.25163419
-1.24595386
-1.24028062
-1.23462232
-1.22896329
-1.22331958
-1.21768295
-1.21204522
-1.20642236
-1.20080700
-1.19520648
-1.18960487
-1.18401076
-1.17843146
-1.17285922
-1.16729405
-1.16172784
-1.15618490
-1.15064092
-1.14510401
-1.13958222
-1.13405943
-1.12855134
-1.12305070
-1.11755710
-1.11207015
-1.10659065
-1.10111779
-1.09565237
-1.09020954
-1.08475779
-1.07932104
-1.07389131
-1.06846108
-1.06305333
-1.05764468
-1.05225095
-1.04685634
-1.04147624
-1.03610353
-1.03073783
-1.02537874
-1.02002705
-1.01468237
-1.00935211
-1.00402103
-0.99870515
-0.99339585
-0.98809354
-0.98279085
-0.97750989
-0.97222892
-0.96695455
-0.96168717
-0.95643448
-0.95119608
-0.94594962
-0.94071783
-0.93549301
-0.93027476
-0.92507113
-0.91986719
-0.91467746
-0.90949506
-0.90431542
-0.89914653
-0.89398838
-0.88882997
-0.88368948
-0.87855214
-0.87342551
-0.86829827
-0.86318550
-0.85807928
-0.85297661
-0.84788836
-0.84280666
-0.83773599
-0.83266811
-0.82760380
-0.82255348
-0.81751044
-0.81247765
-0.80744804
-0.80242534
-0.79741325
-0.79240841
-0.78741343
-0.78242569
-0.77744484
-0.77246353
-0.76750013
-0.76253994
-0.75758993
-0.75265081
-0.74771455
-0.74278916
-0.73787028
-0.73295862
-0.72805347
-0.72315881
-0.71826738
-0.71338318
-0.70850909
-0.70364546
-0.69878508
-0.69393514
-0.68909205
-0.68425939
-0.67942962
-0.67461064
-0.66980526
-0.66499993
-0.66020464
-0.65541653
-0.65063489
-0.64586043
-0.64109244
-0.63633481
-0.63158435
-0.62684035
-0.62210316
-0.61737630
-0.61265976
-0.60794965
-0.60324320
-0.59854356
-0.59385421
-0.58917165
-0.58450249
-0.57983351
-0.57517445
-0.57052252
-0.56587703
-0.56124523
-0.55661365
-0.55199195
-0.54737703
-0.54276922
-0.53817436
-0.53358317
-0.52899875
-0.52442792
-0.51985703
-0.51529630
-0.51074232
-0.50619816
-0.50166108
-0.49712736
-0.49260682
-0.48808964
-0.48358291
-0.47908594
-0.47458898
-0.47010883
-0.46562903
-0.46115564
-0.45669565
-0.45223906
-0.44778918
-0.44335268
-0.43891625
-0.43449615
-0.43007316
-0.42566679
-0.42126350
-0.41687054
-0.41247770
-0.40810109
-0.40372463
-0.39936140
-0.39500193
-0.39065534
-0.38630893
-0.38197571
-0.37764269
-0.37332607
-0.36900966
-0.36470639
-0.36040334
-0.35611664
-0.35183306
-0.34755326
-0.34328655
-0.33902297
-0.33476958
-0.33052571
-0.32628245
-0.32205189
-0.31783115
-0.31361072
-0.30940327
-0.30520247
-0.30100230
-0.29681793
-0.29263704
-0.28846280
-0.28429801
-0.28014016
-0.27599207
-0.27184436
-0.26770920
-0.26358097
-0.25946216
-0.25534407
-0.25123848
-0.24713951
-0.24304714
-0.23895862
-0.23488255
-0.23081309
-0.22675022
-0.22269701
-0.21864734
-0.21460427
-0.21057084
-0.20654401
-0.20252649
-0.19851586
-0.19451150
-0.19051403
-0.18652284
-0.18254154
-0.17856080
-0.17459235
-0.17063346
-0.16667815
-0.16273269
-0.15879349
-0.15486382
-0.15093774
-0.14702119
-0.14311089
-0.13920744
-0.13531054
-0.13142313
-0.12753933
-0.12366472
-0.11979988
-0.11593835
-0.11208657
-0.10824103
-0.10440232
-0.10056985
-0.09674971
-0.09293318
-0.08912318
-0.08531971
-0.08152563
-0.07773807
-0.07395415
-0.07017962
-0.06641732
-0.06265866
-0.05890622
-0.05516056
-0.05142141
-0.04768848
-0.04397054
-0.04025089
-0.03654309
-0.03283925
-0.02914161
-0.02545889
-0.02177703
-0.01810193
-0.01443304
-0.01077621
-0.00712305
-0.00347638
0.00015856
0.00378954
0.00741680
0.01102961
0.01464119
0.01824384
0.02183702
0.02542676
0.02900977
0.03258388
0.03615154
0.03971248
0.04326454
0.04681287
0.05034934
0.05388209
0.05741110
0.06092560
0.06443904
0.06794097
0.07143888
0.07492770
0.07841276
0.08188901
0.08535592
0.08881934
0.09227343
0.09572402
0.09916293
0.10259780
0.10602391
0.10944100
0.11285692
0.11626123
0.11966175
0.12305327
0.12643841
0.12981457
0.13318461
0.13655317
0.13990761
0.14326083
0.14660278
0.14993580
0.15326987
0.15659016
0.15990409
0.16321649
0.16651516
0.16981000
0.17310077
0.17638037
0.17965136
0.18292304
0.18618108
0.18943304
0.19267840
0.19591992
0.19915260
0.20237671
0.20559423
0.20881038
0.21201301
0.21521179
0.21840154
0.22158521
0.22476745
0.22793578
0.23110048
0.23425643
0.23740607
0.24054697
0.24368640
0.24681711
0.24993909
0.25305501
0.25616199
0.25926507
0.26235970
0.26544779
0.26852984
0.27160297
0.27467481
0.27773537
0.28078989
0.28383812
0.28687983
0.28991316
0.29294021
0.29596098
0.29897548
0.30198138
0.30498102
0.30797440
0.31096174
0.31394258
0.31691486
0.31987882
0.32283631
0.32579006
0.32873734
0.33167631
0.33460880
0.33753528
0.34045551
0.34336724
0.34627251
0.34916952
0.35206255
0.35494710
0.35782766
0.36069976
0.36356563
0.36642105
0.36927227
0.37211947
0.37495847
0.37779102
0.38061319
0.38343114
0.38624528
0.38905080
0.39184599
0.39463933
0.39742429
0.40020306
0.40297347
0.40573769
0.40849766
0.41124757
0.41399323
0.41673270
0.41946172
0.42218691
0.42490783
0.42761622
0.43032288
0.43302315
0.43571325
0.43839908
0.44107476
0.44374847
0.44641579
0.44907301
0.45172615
0.45436899
0.45700981
0.45964037
0.46226683
0.46488509
0.46749926
0.47010320
0.47270324
0.47529492
0.47788248
0.48046007
0.48303536
0.48560069
0.48816171
0.49071479
0.49326355
0.49580239
0.49833314
0.50086372
0.50338225
0.50589861
0.50840492
0.51090317
0.51340118
0.51588723
0.51837107
0.52084511
0.52331092
0.52577451
0.52823027
0.53067781
0.53312138
0.53555675
0.53798623
0.54040772
0.54282484
0.54523418
0.54763744
0.55003650
0.55242572
0.55480888
0.55718597
0.55955699
0.56192381
0.56428084
0.56663181
0.56897507
0.57131393
0.57364857
0.57597367
0.57829254
0.58060554
0.58291068
0.58521141
0.58750627
0.58979328
0.59207407
0.59434722
0.59661612
0.59887720
0.60113225
0.60337949
0.60562249
0.60785787
0.61008705
0.61231021
0.61452578
0.61673865
0.61894201
0.62113954
0.62333088
0.62551638
0.62769398
0.62986404
0.63202981
0.63418958
0.63634165
0.63848773
0.64062933
0.64276190
0.64489000
0.64701211
0.64912655
0.65123500
0.65333748
0.65543397
0.65752134
0.65960422
0.66168130
0.66375224
0.66581573
0.66787473
0.66992629
0.67197026
0.67400974
0.67604180
0.67806951
0.68008965
0.68210064
0.68410889
0.68611117
0.68810592
0.69009330
0.69207616
0.69405151
0.69602248
0.69798455
0.69994209
0.70189368
0.70383641
0.70577630
0.70770856
0.70963352
0.71155409
0.71346705
0.71537288
0.71727553
0.71917089
0.72105732
0.72294086
0.72481548
0.72668570
0.72855016
0.73040708
0.73225809
0.73410189
0.73594111
0.73777298
0.73960055
0.74142063
0.74323352
0.74504326
0.74684294
0.74863960
0.75042753
0.75221228
0.75398717
0.75575874
0.75752317
0.75928045
0.76103314
0.76277855
0.76451950
0.76625180
0.76798100
0.76970172
0.77141522
0.77312546
0.77482849
0.77652579
0.77821575
0.77990000
0.78157975
0.78325097
0.78491622
0.78657709
0.78823080
0.78987735
0.79152071
0.79315559
0.79478466
0.79640789
0.79802660
0.79963701
0.80124148
0.80284026
0.80443437
0.80602011
0.80760017
0.80917442
0.81074274
0.81230663
0.81386332
0.81541309
0.81695705
0.81849522
0.82002882
0.82155416
0.82307493
0.82458868
0.82609543
0.82759761
0.82909292
0.83058352
0.83206833
0.83354617
0.83501822
0.83648343
0.83794287
0.83939642
0.84084431
0.84228527
0.84372151
0.84515094
0.84657461
0.84799251
0.84940352
0.85080979
0.85220939
0.85360313
0.85499112
0.85637223
0.85774871
0.85911834
0.86048233
0.86184046
0.86319176
0.86453634
0.86587628
0.86721038
0.86853885
0.86986148
0.87117741
0.87248762
0.87379199
0.87508970
0.87638168
0.87766899
0.87894954
0.88022437
0.88149348
0.88275484
0.88401161
0.88526257
0.88650782
0.88774546
0.88897931
0.89020655
0.89142898
0.89264285
0.89385290
0.89505735
0.89625503
0.89744616
0.89863256
0.89981231
0.90098639
0.90215478
0.90331749
0.90447358
0.90562493
0.90676968
0.90790782
0.90904122
0.91016895
0.91129019
0.91240568
0.91351469
0.91461885
0.91571655
0.91680939
0.91789577
0.91897562
0.92005149
0.92111917
0.92218294
0.92323934
0.92429182
0.92533608
0.92637642
0.92741026
0.92843847
0.92946021
0.93047798
0.93148772
0.93249340
0.93349181
0.93448468
0.93547346
0.93645429
0.93743102
0.93840062
0.93936461
0.94032447
0.94127646
0.94222439
0.94316516
0.94410033
0.94503135
0.94595464
0.94687301
0.94778577
0.94869220
0.94959304
0.95048901
0.95137866
0.95226207
0.95313983
0.95401342
0.95487937
0.95574044
0.95659516
0.95744577
0.95828871
0.95912671
0.95995920
0.96078544
0.96160747
0.96242190
0.96323145
0.96403543
0.96483319
0.96562539
0.96641333
0.96719378
0.96796938
0.96873872
0.96950253
0.97026084
0.97101355
0.97176078
0.97250178
0.97323852
0.97396844
0.97469230
0.97541121
0.97612400
0.97683178
0.97753351
0.97822913
0.97891981
0.97960445
0.98028401
0.98095760
0.98162562
0.98228758
0.98294456
0.98359554
0.98424096
0.98488086
0.98551427
0.98614321
0.98676608
0.98738350
0.98799537
0.98860178
0.98920220
0.98979756
0.99038699
0.99097001
0.99154841
0.99212094
0.99268836
0.99324987
0.99380594
0.99435558
0.99490064
0.99543978
0.99597349
0.99650167
0.99702400
0.99754081
0.99805262
0.99855850
0.99905854
0.99955348
1.00004260
1.00052586
1.00100407
1.00147721
1.00194411
1.00240556
1.00286156
1.00331212
1.00375686
1.00419652
1.00463001
1.00505878
1.00548179
1.00589898
1.00631108
1.00671777
1.00711832
1.00751382
1.00790355
1.00828816
1.00866673
1.00904048
1.00940822
1.00977084
1.01012805
1.01047954
1.01082561
1.01116599
1.01150152
1.01183081
1.01215524
1.01247373
1.01278685
1.01309505
1.01339710
1.01369427
1.01398577
1.01427187
1.01455237
1.01482748
1.01509741
1.01536152
1.01562069
1.01587402
1.01612199
1.01636478
1.01660179
1.01683343
1.01706008
1.01728098
1.01749632
1.01770666
1.01791129
1.01811054
1.01830476
1.01849313
1.01867631
1.01885398
1.01902658
1.01919353
1.01935501
1.01951127
1.01966229
1.01980773
1.01994782
1.02008255
1.02021185
1.02033601
1.02045463
1.02056792
1.02067587
1.02077848
1.02087569
1.02096764
1.02105425
1.02113547
1.02121135
1.02128187
1.02134711
1.02140698
1.02146153
1.02151077
1.02155465
1.02159325
1.02162652
1.02165447
1.02167712
1.02169444
1.02170648
1.02171320
1.02171462
1.02171074
1.02170156
1.02168710
1.02166734
1.02164230
1.02161196
1.02157633
1.02153541
1.02148925
1.02143780
1.02138106
1.02131904
1.02125174
1.02117922
1.02110150
1.02101843
1.02093010
1.02083648
1.02073768
1.02063363
1.02052420
1.02040979
1.02028993
1.02016492
1.02003454
1.01989901
1.01975834
1.01961242
1.01946113
1.01930472
1.01914319
1.01897628
1.01880412
1.01862672
1.01844438
1.01825664
1.01806368
1.01786563
1.01766218
1.01745367
1.01724011
1.01702115
1.01679678
1.01656772
1.01633308
1.01609338
1.01584869
1.01559858
1.01534365
1.01508310
1.01481733
1.01454680
1.01427080
1.01399008
1.01370369
1.01341256
1.01311576
1.01281397
1.01250751
1.01219535
1.01187823
1.01155592
1.01122869
1.01089598
1.01055838
1.01021558
1.00986790
1.00951504
1.00915638
1.00879344
1.00842472
1.00805146
1.00767238
1.00728906
1.00690025
1.00650597
1.00610716
1.00570322
1.00529338
1.00487943
1.00445965
1.00403502
1.00360560
1.00317066
1.00273093
1.00228605
1.00183640
1.00138083
1.00092089
1.00045580
0.99998516
0.99950978
0.99902963
0.99854439
0.99805358
0.99755802
0.99705736
0.99655196
0.99604144
0.99552494
0.99500415
0.99447828
0.99394769
0.99341199
0.99287116
0.99232433
0.99177326
0.99121751
0.99065625
0.99009027
0.98951923
0.98894308
0.98836232
0.98777595
0.98718494
0.98658784
0.98598666
0.98538086
0.98476948
0.98415349
0.98353191
0.98290573
0.98227499
0.98163868
0.98099721
0.98035122
0.97970014
0.97904403
0.97838278
0.97771702
0.97704561
0.97637080
0.97568982
0.97500377
0.97431264
0.97361703
0.97291569
0.97220995
0.97149914
0.97078382
0.97006288
0.96933806
0.96860763
0.96787207
0.96713146
0.96638585
0.96563577
0.96488129
0.96412111
0.96335588
0.96258567
0.96181162
0.96103192
0.96024657
0.95945672
0.95866328
0.95786342
0.95705922
0.95624928
0.95543636
0.95461706
0.95379266
0.95296474
0.95213100
0.95129159
0.95044926
0.94960046
0.94874670
0.94788934
0.94702622
0.94615808
0.94528576
0.94440760
0.94352595
0.94263853
0.94174533
0.94084938
0.93994694
0.93904107
0.93812863
0.93721277
0.93629104
0.93536601
0.93443437
0.93349928
0.93255765
0.93161259
0.93066180
0.92970760
0.92874676
0.92778260
0.92681271
0.92583860
0.92485867
0.92387461
0.92288558
0.92189244
0.92089433
0.91989038
0.91888234
0.91787022
0.91685137
0.91582923
0.91480134
0.91376938
0.91273327
0.91169049
0.91064448
0.90959362
0.90853679
0.90747695
0.90641114
0.90534133
0.90426573
0.90318602
0.90210138
0.90101275
0.89991728
0.89881878
0.89771535
0.89660699
0.89549272
0.89437546
0.89325319
0.89212609
0.89099407
0.88985613
0.88871416
0.88756837
0.88641756
0.88526194
0.88410131
0.88293586
0.88176642
0.88059011
0.87941085
0.87822668
0.87703761
0.87584468
0.87464579
0.87344306
0.87223543
0.87102290
0.86980547
0.86858421
0.86735807
0.86612596
0.86489101
0.86365020
0.86240450
0.86115489
0.85989942
0.85864016
0.85737591
0.85610789
0.85483400
0.85355623
0.85227258
0.85098506
0.84969381
0.84839769
0.84709671
0.84578971
0.84447911
0.84316353
0.84184414
0.84051883
0.83919101
0.83785716
0.83651845
0.83517477
0.83382635
0.83247308
0.83111722
0.82975545
0.82838882
0.82701723
0.82564322
0.82426206
0.82287715
0.82148753
0.82009417
0.81869599
0.81729173
0.81588512
0.81447244
0.81305368
0.81163146
0.81020668
0.80877594
0.80733911
0.80590000
0.80445480
0.80300721
0.80155237
0.80009270
0.79863197
0.79716267
0.79569233
0.79421471
0.79273214
0.79124739
0.78975665
0.78826230
0.78676183
0.78525921
0.78374926
0.78223705
0.78071871
0.77919692
0.77766899
0.77613898
0.77460146
0.77306187
0.77151613
0.76996685
0.76841291
0.76685420
0.76529195
0.76372368
0.76215189
0.76057406
0.75899411
0.75740814
0.75581725
0.75422300
0.75262271
0.75101893
0.74941182
0.74779723
0.74618059
0.74455920
0.74293160
0.74130215
0.73966649
0.73802738
0.73638221
0.73473376
0.73308055
0.73142112
0.72975975
0.72809378
0.72642293
0.72474748
0.72306580
0.72138222
0.71969256
0.71799951
0.71630174
0.71459786
0.71289061
0.71118017
0.70946499
0.70774510
0.70602048
0.70428974
0.70255567
0.70081828
0.69907492
0.69732809
0.69557826
0.69382216
0.69206134
0.69029723
0.68852856
0.68675504
0.68497696
0.68319418
0.68140813
0.67961593
0.67782048
0.67602033
0.67421564
0.67240771
0.67059346
0.66877615
0.66695414
0.66512744
0.66329622
0.66146162
0.65962102
0.65777705
0.65592857
0.65407540
0.65221755
0.65035502
0.64849098
0.64662077
0.64474589
0.64286616
0.64098193
0.63909472
0.63720437
0.63530766
0.63340646
0.63150042
0.62958971
0.62767777
0.62575964
0.62383494
0.62190732
0.61997503
0.61804157
0.61610172
0.61415547
0.61220808
0.61025428
0.60829759
0.60633450
0.60437012
0.60239774
0.60042248
0.59844598
0.59646145
0.59447210
0.59248188
0.59048505
0.58848540
0.58647949
0.58446876
0.58245704
0.58043906
0.57841810
0.57639069
0.57435866
0.57232384
0.57028440
0.56824219
0.56619167
0.56414209
0.56208419
0.56002354
0.55795809
0.55589009
0.55381374
0.55173822
0.54965453
0.54756812
0.54547692
0.54338301
0.54128090
0.53917970
0.53707220
0.53495801
0.53284305
0.53072158
0.52859763
0.52646891
0.52433367
0.52219772
0.52005330
0.51790818
0.51575849
0.51360226
0.51144517
0.50928371
0.50711571
0.50494314
0.50276777
0.50058802
0.49840371
0.49621463
0.49402318
0.49182696
0.48962438
0.48741904
0.48521114
0.48299669
0.48077787
0.47855631
0.47633019
0.47409953
0.47186635
0.46962658
0.46738226
0.46513544
0.46288407
0.46062815
0.45836975
0.45610682
0.45383707
0.45156299
0.44928644
0.44700722
0.44472160
0.44243353
0.44014072
0.43784338
0.43554173
0.43323534
0.43092652
0.42861129
0.42629343
0.42397105
0.42164437
0.41931508
0.41697914
0.41464083
0.41229800
0.40995065
0.40759880
0.40524243
0.40288349
0.40051811
0.39815037
0.39577813
0.39340552
0.39102428
0.38863832
0.38625026
0.38385749
0.38146044
0.37905867
0.37665263
0.37424628
0.37183324
0.36941594
0.36699392
0.36456742
0.36213866
0.35970542
0.35726769
0.35482325
0.35237656
0.34992989
0.34747425
0.34501639
0.34255179
0.34008702
0.33761574
0.33514226
0.33266409
0.33018168
0.32769253
0.32520325
0.32270745
0.32020925
0.31770660
0.31519972
0.31268585
0.31017214
0.30765190
0.30513138
0.30260223
0.30006839
0.29753477
0.29499436
0.29245419
0.28990490
0.28735116
0.28479745
0.28223506
0.27967247
0.27710332
0.27453423
0.27195621
0.26937851
0.26679161
0.26420482
0.26161144
0.25901818
0.25641571
0.25381386
0.25120734
0.24859159
0.24597865
0.24335671
0.24073253
0.23810635
0.23547091
0.23283591
0.23019406
0.22755268
0.22490446
0.22225183
0.21959479
0.21693801
0.21426970
0.21160438
0.20893194
0.20625535
0.20357436
0.20089121
0.19820615
0.19551198
0.19281590
0.19011767
0.18741507
0.18470331
0.18199193
0.17927867
0.17655853
0.17383172
0.17110583
0.16837507
0.16563992
0.16290294
0.16015905
0.15740823
0.15465813
0.15190341
0.14914458
0.14638138
0.14361612
0.14084418
0.13807046
0.13529211
0.13250708
0.12972001
0.12692884
0.12413565
0.12133836
0.11853646
0.11573021
0.11291960
0.11010491
0.10728822
0.10446456
0.10163918
0.09880945
0.09597538
0.09313960
0.09029684
0.08745239
0.08460360
0.08175021
0.07889275
0.07603362
0.07316989
0.07030210
0.06742730
0.06455058
0.06166980
0.05878711
0.05589767
0.05300904
0.05011338
0.04721368
0.04430939
0.04140077
0.03848810
0.03557629
0.03265745
0.02973429
0.02680681
0.02387503
0.02094442
0.01800401
0.01506205
0.01211577
0.00916768
0.00621280
0.00325638
0.00029539
-0.00266962
-0.00563893
-0.00861003
-0.01158793
-0.01457041
-0.01755159
-0.02053958
-0.02353213
-0.02652617
-0.02952702
-0.03253244
-0.03553651
-0.03855022
-0.04156285
-0.04458258
-0.04760660
-0.05062922
-0.05366179
-0.05669323
-0.05973151
-0.06277120
-0.06581802
-0.06886626
-0.07191904
-0.07497293
-0.07803683
-0.08109954
-0.08416909
-0.08723743
-0.09031551
-0.09339236
-0.09647897
-0.09956432
-0.10265655
-0.10574750
-0.10884560
-0.11194796
-0.11505457
-0.11816514
-0.12127732
-0.12439110
-0.12751441
-0.13063931
-0.13376581
-0.13689920
-0.14003388
-0.14317279
-0.14631594
-0.14946362
-0.15261226
-0.15577108
-0.15892551
-0.16208684
