corrn_curve_quadratic
0.15964280
0.15998429
0.16032835
0.16067401
0.16102224
0.16137205
0.16172397
0.16207794
0.16243402
0.16279219
0.16315191
0.16351421
0.16387809
0.16424458
0.16461261
0.16498273
0.16535492
0.16572918
0.16610501
0.16648342
0.16686336
0.16724593
0.16762948
0.16801566
0.16840388
0.16879420
0.16918660
0.16958049
0.16997699
0.17037501
0.17077510
0.17117725
0.17158146
0.17198774
0.17239553
0.17280593
0.17321780
0.17363174
0.17404833
0.17446641
0.17488652
0.17530811
0.17573236
0.17615865
0.17658640
0.17701620
0.17744806
0.17788260
0.17831793
0.17875594
0.17919601
0.17963749
0.18008166
0.18052726
0.18097488
0.18142455
0.18187630
0.18233006
0.18278590
0.18324376
0.18370235
0.18416433
0.18462768
0.18509307
0.18556115
0.18602993
0.18650145
0.18697431
0.18744990
0.18792687
0.18840584
0.18888685
0.18936992
0.18985500
0.19034211
0.19083058
0.19132180
0.19181429
0.19230885
0.19280544
0.19330475
0.19380471
0.19430735
0.19481206
0.19531880
0.19582682
0.19633615
0.19684897
0.19736306
0.19787918
0.19839735
0.19891679
0.19943898
0.19996245
0.20048791
0.20101581
0.20154534
0.20207650
0.20261043
0.20314522
0.20368243
0.20422125
0.20476289
0.20530574
0.20585065
0.20639793
0.20694641
0.20749695
0.20804905
0.20860360
0.20916053
0.20971870
0.21027882
0.21084058
0.21140476
0.21197095
0.21253873
0.21310846
0.21367986
0.21425322
0.21482858
0.21540680
0.21598574
0.21656710
0.21715008
0.21773458
0.21832155
0.21891004
0.21950057
0.22009305
0.22068757
0.22128364
0.22188215
0.22248261
0.22308466
0.22368825
0.22429429
0.22490187
0.22551143
0.22612253
0.22673612
0.22735120
0.22796739
0.22858643
0.22920705
0.22982960
0.23045419
0.23108071
0.23170926
0.23233933
0.23297133
0.23360536
0.23424136
0.23487888
0.23551790
0.23615894
0.23680238
0.23744781
0.23809473
0.23874362
0.23939357
0.24004641
0.24070079
0.24135709
0.24201541
0.24267472
0.24333694
0.24400068
0.24466639
0.24533402
0.24600271
0.24667383
0.24734691
0.24802095
0.24869796
0.24937643
0.25005686
0.25073880
0.25142265
0.25210897
0.25279628
0.25348606
0.25417723
0.25486990
0.25556556
0.25626161
0.25696061
0.25766163
0.25836354
0.25906794
0.25977429
0.26048154
0.26119180
0.26190247
0.26261663
0.26333114
0.26404819
0.26476660
0.26548803
0.26620985
0.26693469
0.26766040
0.26838853
0.26911758
0.26984966
0.27058259
0.27131857
0.27205483
0.27279413
0.27353427
0.27427746
0.27502092
0.27576693
0.27651538
0.27726465
0.27801647
0.27876961
0.27952417
0.28028175
0.28104018
0.28179997
0.28256283
0.28332648
0.28409206
0.28486067
0.28562953
0.28640090
0.28717420
0.28794890
0.28872547
0.28950338
0.29028439
0.29106621
0.29184989
0.29263497
0.29342309
0.29421201
0.29500285
0.29579561
0.29659083
0.29738683
0.29818475
0.29898459
0.29978574
0.30058942
0.30139501
0.30220191
0.30301072
0.30382090
0.30463293
0.30544693
0.30626278
0.30708061
0.30789967
0.30872188
0.30954482
0.31036905
0.31119581
0.31202378
0.31285373
0.31368496
0.31451872
0.31535375
0.31619075
0.31702960
0.31787034
0.31871235
0.31955691
0.32040278
0.32124986
0.32209954
0.32295041
0.32380324
0.32465791
0.32551453
0.32637176
0.32723153
0.32809319
0.32895676
0.32982156
0.33068825
0.33155749
0.33242797
0.33329902
0.33417261
0.33504816
0.33592554
0.33680481
0.33768603
0.33856712
0.33945206
0.34033759
0.34122563
0.34211561
0.34300545
0.34389852
0.34479342
0.34569026
0.34658762
0.34748754
0.34838935
0.34929172
0.35019660
0.35110404
0.35201136
0.35292187
0.35383363
0.35474650
0.35566201
0.35657933
0.35749789
0.35841832
0.35934056
0.36026403
0.36119009
0.36211659
0.36304568
0.36397734
0.36490874
0.36584344
0.36677864
0.36771636
0.36865522
0.36959667
0.37053933
0.37148307
0.37242946
0.37337692
0.37432704
0.37527757
0.37623061
0.37718486
0.37814023
0.37909893
0.38005802
0.38101971
0.38198251
0.38294717
0.38391294
0.38488064
0.38585161
0.38682220
0.38779614
0.38877051
0.38974598
0.39072548
0.39170465
0.39268567
0.39366997
0.39465393
0.39564049
0.39662959
0.39761909
0.39860974
0.39960438
0.40059865
0.40159484
0.40259280
0.40359337
0.40459501
0.40559779
0.40660234
0.40761029
0.40861782
0.40962796
0.41063909
0.41165214
0.41266859
0.41368444
0.41470300
0.41572261
0.41674405
0.41776653
0.41879243
0.41981937
0.42084735
0.42187725
0.42290809
0.42394157
0.42497615
0.42601249
0.42705073
0.42808992
0.42913262
0.43017547
0.43122021
0.43226679
0.43331511
0.43436452
0.43541576
0.43646882
0.43752370
0.43857958
0.43963729
0.44069682
0.44175825
0.44282142
0.44388558
0.44495082
0.44601779
0.44708748
0.44815891
0.44923141
0.45030564
0.45138177
0.45245971
0.45353863
0.45461928
0.45570099
0.45678534
0.45787066
0.45895864
0.46004758
0.46113834
0.46222929
0.46332280
0.46441898
0.46551620
0.46661514
0.46771425
0.46881595
0.46992039
0.47102569
0.47213115
0.47324014
0.47435007
0.47546181
0.47657447
0.47768893
0.47880598
0.47992326
0.48104311
0.48216477
0.48328647
0.48441094
0.48553798
0.48666419
0.48779404
0.48892559
0.49005726
0.49119152
0.49232588
0.49346381
0.49460344
0.49574317
0.49688559
0.49802800
0.49917399
0.50031998
0.50146865
0.50261820
0.50377045
0.50492267
0.50607767
0.50723346
0.50839194
0.50955048
0.51071252
0.51187462
0.51303932
0.51420498
0.51537324
0.51654155
0.51771071
0.51888440
0.52005711
0.52123344
0.52240971
0.52358682
0.52476848
0.52594914
0.52713343
0.52831772
0.52950276
0.53069144
0.53188105
0.53307140
0.53426455
0.53545844
0.53665419
0.53785077
0.53904996
0.54025007
0.54145195
0.54265654
0.54386100
0.54506722
0.54627521
0.54748496
0.54869743
0.54990975
0.55112383
0.55233881
0.55355641
0.55477673
0.55599699
0.55721891
0.55844268
0.55966724
0.56089443
0.56212347
0.56335330
0.56458479
0.56581716
0.56705225
0.56828812
0.56952574
0.57076414
0.57200527
0.57324726
0.57449091
0.57573631
0.57698256
0.57823244
0.57948210
0.58073360
0.58198675
0.58324174
0.58449739
0.58575389
0.58701312
0.58827410
0.58953582
0.59079929
0.59206539
0.59333144
0.59460013
0.59587055
0.59714172
0.59841462
0.59968926
0.60096564
0.60224183
0.60352067
0.60480134
0.60608365
0.60736678
0.60865256
0.60993916
0.61122646
0.61251642
0.61380719
0.61510072
0.61639495
0.61768885
0.61898654
0.62028596
0.62158608
0.62288700
0.62419057
0.62549483
0.62680186
0.62810863
0.62941807
0.63072923
0.63204013
0.63335485
0.63467013
0.63598620
0.63730503
0.63862444
0.63994471
0.64126861
0.64259327
0.64391754
0.64524565
0.64657335
0.64790383
0.64923613
0.65056898
0.65190354
0.65323886
0.65457685
0.65591548
0.65725701
0.65859907
0.65994188
0.66128843
0.66263358
0.66398260
0.66533116
0.66668349
0.66803449
0.66938916
0.67074455
0.67210067
0.67345948
0.67481890
0.67618112
0.67754286
0.67890849
0.68027374
0.68163960
0.68300925
0.68437950
0.68575156
0.68712411
0.68849847
0.68987563
0.69125228
0.69263052
0.69401167
0.69539341
0.69677573
0.69816198
0.69954769
0.70093510
0.70232420
0.70371611
0.70510760
0.70650066
0.70789552
0.70929308
0.71069009
0.71208890
0.71348940
0.71489147
0.71629648
0.71770192
0.71910804
0.72051585
0.72192533
0.72333764
0.72474937
0.72616391
0.72757900
0.72899463
0.73041308
0.73183219
0.73325400
0.73467750
0.73610154
0.73752725
0.73895360
0.74038164
0.74181123
0.74324262
0.74467453
0.74610916
0.74754442
0.74898135
0.75041996
0.75185908
0.75330092
0.75474350
0.75618764
0.75763345
0.75907976
0.76052891
0.76197857
0.76343000
0.76488299
0.76633648
0.76779056
0.76924749
0.77070598
0.77216624
0.77362806
0.77509047
0.77655455
0.77802017
0.77948639
0.78095427
0.78242500
0.78389620
0.78536907
0.78684359
0.78831738
0.78979415
0.79127246
0.79275242
0.79423176
0.79571504
0.79719890
0.79868549
0.80017024
0.80165895
0.80314942
0.80464022
0.80613159
0.80762581
0.80912048
0.81061680
0.81211476
0.81361438
0.81511443
0.81661735
0.81812070
0.81962446
0.82113111
0.82263939
0.82414823
0.82565858
0.82716947
0.82868311
0.83019729
0.83171423
0.83323169
0.83474956
0.83627143
0.83779134
0.83931538
0.84083857
0.84236589
0.84389111
0.84542046
0.84695021
0.84848159
0.85001336
0.85154927
0.85308318
0.85462111
0.85615816
0.85769697
0.85923981
0.86078063
0.86232548
0.86386956
0.86541527
0.86696502
0.86851273
0.87006460
0.87161556
0.87316815
0.87472479
0.87627949
0.87783697
0.87939607
0.88095552
0.88251659
0.88408057
0.88564490
0.88720969
0.88877598
0.89034647
0.89191484
0.89348613
0.89505762
0.89663344
0.89820700
0.89978335
0.90136145
0.90293986
0.90452250
0.90610285
0.90768612
0.90927101
0.91085621
0.91244303
0.91403407
0.91562281
0.91721460
0.91880656
0.92040014
0.92199546
0.92359225
0.92519080
0.92678950
0.92839259
0.92999451
0.93159686
0.93320213
0.93480769
0.93641605
0.93802483
0.93963388
0.94124587
0.94285826
0.94447333
0.94608893
0.94770601
0.94932335
0.95094364
0.95256432
0.95418647
0.95581022
0.95743302
0.95906011
0.96068731
0.96231625
0.96394666
0.96557880
0.96721119
0.96884639
0.97048197
0.97211657
0.97375521
0.97539435
0.97703618
0.97867838
0.98032231
0.98196497
0.98361195
0.98525916
0.98690809
0.98855848
0.99020923
0.99186143
0.99351673
0.99517210
0.99682783
0.99848639
1.00014529
1.00180440
1.00346648
1.00513152
1.00679538
1.00846083
1.01012786
1.01179648
1.01346529
1.01513707
1.01680766
1.01848260
1.02015788
1.02183320
1.02351150
1.02519151
1.02687018
1.02855195
1.03023391
1.03191870
1.03360241
1.03529035
1.03697721
1.03866704
1.04035845
1.04205003
1.04374317
1.04543648
1.04713419
1.04882923
1.05052867
1.05222685
1.05392673
1.05563089
1.05733235
1.05903837
1.06074439
1.06245198
1.06415985
1.06586928
1.06758157
1.06929271
1.07100828
1.07272240
1.07443823
1.07615706
1.07787459
1.07959367
1.08131719
1.08303939
1.08476171
1.08648848
1.08821407
1.08994107
1.09167252
1.09340119
1.09513300
1.09686478
1.09860117
1.10033606
1.10207120
1.10380935
1.10555036
1.10729016
1.10903152
1.11077427
1.11251727
1.11426474
1.11601084
1.11775849
1.11950769
1.12125844
1.12300941
1.12476326
1.12651866
1.12827413
1.13003115
1.13178839
1.13354851
1.13530884
1.13707057
1.13883399
1.14059747
1.14236383
1.14413040
1.14589851
1.14766802
1.14943772
1.15121195
1.15298474
1.15475907
1.15653344
1.15831085
1.16008830
1.16186744
1.16364796
1.16543003
1.16721363
1.16899891
1.17078408
1.17257079
1.17435917
1.17614895
1.17794041
1.17973189
1.18152324
1.18331778
1.18511386
1.18691147
1.18870910
1.19050810
1.19231031
1.19410963
1.19591337
1.19771712
1.19952392
1.20133072
1.20313753
1.20494600
1.20675739
1.20856877
1.21038029
1.21219471
1.21401082
1.21582829
1.21764437
1.21946350
1.22128401
1.22310464
1.22492835
1.22675203
1.22857568
1.23040239
1.23223203
1.23405883
1.23588996
1.23772135
1.23955256
1.24138683
1.24321966
1.24505697
1.24689579
1.24873301
1.25057346
1.25241230
1.25425562
1.25609748
1.25794383
1.25979028
1.26163510
1.26348441
1.26533382
1.26718475
1.26903560
1.27088954
1.27274341
1.27459879
1.27645410
1.27831091
1.28017239
1.28203078
1.28389370
1.28575494
1.28762087
1.28948369
1.29134960
1.29321844
1.29508577
1.29695443
1.29882795
1.30069818
1.30257294
1.30444777
1.30632249
1.30820031
1.31007803
1.31195725
1.31383636
1.31572018
1.31760228
1.31948587
1.32137258
1.32325916
1.32514579
1.32703375
1.32892482
1.33081592
1.33270836
1.33460083
1.33649479
1.33839333
1.34029027
1.34218854
1.34408683
1.34598662
1.34788789
1.34979374
1.35169799
1.35360226
1.35550931
1.35741655
1.35932511
1.36123515
1.36314504
1.36505805
1.36697106
1.36888869
1.37080451
1.37272033
1.37463911
1.37655789
1.37847964
1.38040139
1.38232296
1.38424749
1.38617368
1.38809968
1.39002716
1.39195596
1.39388640
1.39581665
1.39775004
1.39968009
1.40161476
1.40355092
1.40548854
1.40742598
1.40936672
1.41130710
1.41324895
1.41519077
1.41713557
1.41907865
1.42102471
1.42297241
1.42492158
1.42687205
1.42882247
1.43077268
1.43272604
1.43468086
1.43663699
1.43859154
1.44054908
1.44250960
1.44447024
1.44642878
1.44839218
1.45035534
1.45232167
1.45428453
1.45625208
1.45822126
1.46018833
1.46215873
1.46413212
1.46610203
1.46807681
1.47005288
1.47202716
1.47400461
1.47598351
1.47796199
1.47994381
1.48192365
1.48390666
1.48589285
1.48787550
1.48986288
1.49184826
1.49383855
1.49582684
1.49781848
1.49980794
1.50180231
1.50379484
1.50579211
1.50778754
1.50978598
1.51178257
1.51378408
1.51578357
1.51778606
1.51978844
1.52179401
1.52379927
1.52580599
1.52781240
1.52982026
1.53183131
1.53384205
1.53585248
1.53786786
1.53988136
1.54189787
1.54391407
1.54593013
1.54795097
1.54996991
1.55199011
1.55401368
1.55603500
1.55805969
1.56008405
1.56211144
1.56413867
1.56616734
1.56819568
1.57022899
1.57226019
1.57429283
1.57632690
1.57836418
1.58039933
1.58243610
1.58447412
1.58651357
1.58855623
1.59059873
1.59264068
1.59468425
1.59672906
1.59877548
1.60082315
1.60287063
1.60492295
1.60697329
1.60902506
1.61107825
1.61313106
1.61518710
1.61724277
1.61929986
1.62135837
1.62341831
1.62547786
1.62753883
1.62960304
1.63166522
1.63373046
1.63579712
1.63786356
1.63993306
1.64200216
1.64407287
1.64614317
1.64821653
1.65028966
1.65236586
1.65444183
1.65651739
1.65859436
1.66067275
1.66275438
1.66483541
1.66691804
1.66900044
1.67108590
1.67316910
1.67525554
1.67734340
1.67943285
1.68152353
1.68361562
1.68570562
1.68779869
1.68989316
1.69198923
1.69408301
1.69618171
1.69828016
1.70037982
1.70247923
1.70458003
1.70668410
1.70878586
1.71089088
1.71299916
1.71510681
1.71721250
1.71932128
1.72143331
1.72354303
1.72565600
1.72776683
1.72988261
1.73199979
1.73411295
1.73623292
1.73834887
1.74046978
1.74259227
1.74471240
1.74683562
1.74895855
1.75108475
1.75320858
1.75533739
1.75746400
1.75959390
1.76172331
1.76385599
1.76598629
1.76812176
1.77025484
1.77239121
1.77452726
1.77666451
1.77880315
1.78094147
1.78308289
1.78522399
1.78736819
1.78951016
1.79165522
1.79380187
1.79594800
1.79809723
1.80024612
1.80239450
1.80454788
1.80669902
1.80885154
1.81100736
1.81316073
1.81531740
1.81747372
1.81963315
1.82179205
1.82395232
1.82611589
1.82827719
1.83043968
1.83260374
1.83476898
1.83693752
1.83910378
1.84127316
1.84344217
1.84561255
1.84778605
1.84995919
1.85213176
1.85430571
1.85648103
1.85865772
1.86083753
1.86301697
1.86519603
1.86737802
1.86955982
1.87174085
1.87392519
1.87611091
1.87829624
1.88048274
1.88267081
1.88486004
1.88705065
1.88924086
1.89143420
1.89362714
1.89582145
1.89801692
1.90021200
1.90241040
1.90460820
1.90680737
1.90900789
1.91120959
1.91341106
1.91561548
1.91781968
1.92002505
1.92223177
1.92443986
1.92664931
1.92885635
1.93106653
1.93327807
1.93549117
1.93770543
1.93991906
1.94213226
1.94434880
1.94656649
1.94878574
1.95100635
1.95322433
1.95544545
1.95767012
1.95989415
1.96211953
1.96434227
1.96656836
1.96879780
1.97102458
1.97325472
1.97548421
1.97771705
1.97994742
1.98218297
1.98441785
1.98665025
1.98888783
1.99112696
1.99336320
1.99560300
1.99784214
2.00008443
2.00232828
2.00456942
2.00681373
2.00905756
2.01130476
2.01355330
2.01580116
2.01805036
2.02029887
2.02255278
2.02480194
2.02705650
2.02931038
2.03156579
2.03382030
2.03608023
2.03833558
2.04059614
2.04285600
2.04511741
2.04737810
2.04964402
2.05190534
2.05416983
2.05643792
2.05870324
2.06097194
2.06323972
2.06550904
2.06778174
2.07005167
2.07232704
2.07459963
2.07687355
2.07915086
2.08142558
2.08370142
2.08598066
2.08826122
2.09054126
2.09282241
2.09510490
2.09738892
2.09967198
2.10195658
2.10424437
2.10653162
2.10881812
2.11110802
2.11339903
2.11568950
2.11798129
2.12027441
2.12256676
2.12486252
2.12715960
2.12945591
2.13175355
2.13405251
2.13635069
2.13865020
2.14095332
2.14325756
2.14556102
2.14786391
2.15017001
2.15247532
2.15478216
2.15709031
2.15939957
2.16171036
2.16402036
2.16633356
2.16864619
2.17096013
2.17327517
2.17558962
2.17790750
2.18022457
2.18254296
2.18486266
2.18718367
2.18950599
2.19182771
2.19415265
2.19647678
2.19880222
2.20112493
2.20345298
2.20578256
2.20811110
2.21044116
2.21277232
2.21510499
2.21743876
2.21976978
2.22210423
2.22443978
2.22677684
2.22911521
2.23145274
2.23379158
2.23613171
2.23847529
2.24081803
2.24315778
2.24550312
2.24784762
2.25019556
2.25254072
2.25488911
2.25723665
2.25958570
2.26193583
2.26428941
2.26664020
2.26899422
2.27134760
2.27370227
2.27605801
2.27841744
2.28077383
2.28313346
2.28549048
2.28785270
2.29021644
2.29257712
2.29494126
2.29730235
2.29966908
2.30203710
2.30440228
2.30677266
2.30914042
2.31151142
2.31387957
2.31625315
2.31862365
2.32099982
2.32337311
2.32574966
2.32812334
2.33050268
2.33287871
2.33525624
2.33763944
2.34001734
2.34240070
2.34478337
2.34716512
2.34955255
2.35193686
2.35432466
2.35670933
2.35909749
2.36148692
2.36387764
2.36626544
2.36866093
2.37105107
2.37344492
2.37583982
2.37823600
2.38063147
2.38302600
2.38542601
2.38782509
2.39022344
2.39262307
2.39502819
2.39743037
2.39983159
2.40223632
2.40464432
2.40704892
2.40945523
2.41186282
2.41426945
2.41667958
2.41909321
2.42150365
2.42391558
2.42632856
2.42874281
2.43115631
2.43357309
2.43598890
2.43840620
2.44082679
2.44324663
2.44566751
2.44808763
2.45050880
2.45293145
2.45535537
2.45778055
2.46020677
2.46263223
2.46506120
2.46748919
2.46991843
2.47234894
2.47477845
2.47721148
2.47964351
2.48207680
2.48451158
2.48694739
2.48938219
2.49181848
2.49425579
2.49669664
2.49913670
2.50157780
2.50401810
2.50646171
2.50890224
2.51134631
2.51379141
2.51623799
2.51868583
2.52113469
2.52358047
2.52602978
2.52848035
2.53093217
2.53338525
2.53583499
2.53829057
2.54074511
2.54320090
2.54565588
2.54811417
2.55057142
2.55303014
2.55548988
2.55795087
2.56041104
2.56287453
2.56533949
2.56780110
2.57026602
2.57273242
2.57519776
2.57766642
2.58013656
2.58260332
2.58507572
2.58754497
2.59001777
2.59249182
2.59496248
2.59743901
2.59991238
2.60238908
2.60486470
2.60734388
2.60982198
2.61230155
2.61477979
2.61726394
2.61974490
2.62222919
2.62471030
2.62719707
2.62968064
2.63216989
2.63465594
2.63714533
2.63963150
2.64212126
2.64461224
2.64710447
2.64959769
2.65209004
2.65458151
2.65707843
2.65957448
2.66206964
2.66456815
2.66706554
2.66956417
2.67206402
2.67456534
2.67706529
2.67957119
2.68207149
2.68457513
