corrn_curve_linear
0.52005116
0.51976063
0.51946969
0.51917915
0.51888822
0.51859770
0.51830716
0.51801665
0.51772611
0.51743557
0.51714546
0.51685494
0.51656482
0.51627429
0.51598417
0.51569405
0.51540394
0.51511382
0.51482410
0.51453399
0.51424429
0.51395418
0.51366488
0.51337516
0.51308547
0.51279575
0.51250604
0.51221674
0.51192704
0.51163775
0.51134845
0.51105916
0.51076986
0.51048057
0.51019167
0.50990237
0.50961350
0.50932462
0.50903533
0.50874643
0.50845756
0.50816908
0.50788019
0.50759131
0.50730284
0.50701436
0.50672589
0.50643699
0.50614894
0.50586046
0.50557199
0.50528393
0.50499546
0.50470738
0.50441933
0.50413127
0.50384320
0.50355514
0.50326707
0.50297901
0.50269178
0.50240370
0.50211605
0.50182839
0.50154034
0.50125311
0.50096545
0.50067822
0.50039056
0.50010331
0.49981607
0.49952884
0.49924159
0.49895435
0.49866712
0.49838028
0.49809303
0.49780622
0.49751938
0.49723255
0.49694531
0.49665888
0.49637207
0.49608523
0.49579840
0.49551198
0.49522597
0.49493914
0.49465272
0.49436631
0.49407988
0.49379386
0.49350745
0.49322144
0.49293544
0.49264922
0.49236321
0.49207740
0.49179120
0.49150561
0.49121980
0.49093421
0.49064820
0.49036261
0.49007699
0.48979119
0.48950581
0.48922040
0.48893523
0.48864983
0.48836423
0.48807904
0.48779387
0.48750889
0.48722369
0.48693850
0.48665352
0.48636856
0.48608376
0.48579899
0.48551422
0.48522903
0.48494446
0.48465969
0.48437511
0.48409076
0.48380618
0.48352182
0.48323745
0.48295310
0.48266873
0.48238457
0.48210019
0.48181584
0.48153168
0.48124773
0.48096357
0.48067961
0.48039566
0.48011192
0.47982795
0.47954421
0.47926087
0.47897712
0.47869357
0.47841004
0.47812649
0.47784296
0.47755941
0.47727607
0.47699275
0.47670940
0.47642606
0.47614293
0.47586001
0.47557707
0.47529394
0.47501081
0.47472789
0.47444497
0.47416244
0.47387952
0.47359679
0.47331408
0.47303135
0.47274904
0.47246633
0.47218381
0.47190129
0.47161879
0.47133667
0.47105436
0.47077205
0.47049016
0.47020785
0.46992575
0.46964365
0.46936173
0.46907984
0.46879774
0.46851604
0.46823413
0.46795245
0.46767096
0.46738905
0.46710777
0.46682609
0.46654439
0.46626311
0.46598162
0.46570013
0.46541907
0.46513758
0.46485670
0.46457521
0.46429435
0.46401326
0.46373240
0.46345112
0.46317045
0.46288936
0.46260869
0.46232783
0.46204737
0.46176649
0.46148603
0.46120515
0.46092490
0.46064423
0.46036399
0.46008332
0.45980328
0.45952301
0.45924255
0.45896251
0.45868224
0.45840220
0.45812235
0.45784211
0.45756226
0.45728262
0.45700256
0.45672292
0.45644328
0.45616324
0.45588382
0.45560418
0.45532454
0.45504509
0.45476566
0.45448644
0.45420680
0.45392757
0.45364835
0.45336932
0.45308989
0.45281086
0.45253184
0.45225281
0.45197359
0.45169477
0.45141595
0.45113714
0.45085853
0.45057971
0.45030089
0.45002228
0.44974368
0.44946526
0.44918686
0.44890844
0.44863005
0.44835163
0.44807344
0.44779483
0.44751663
0.44723863
0.44696042
0.44668244
0.44640445
0.44612666
0.44584866
0.44557088
0.44529307
0.44501528
0.44473749
0.44445992
0.44418213
0.44390453
0.44362717
0.44334957
0.44307220
0.44279481
0.44251745
0.44224006
0.44196309
0.44168592
0.44140874
0.44113156
0.44085460
0.44057763
0.44030045
0.44002349
0.43974694
0.43947019
0.43919341
0.43891665
0.43863990
0.43836312
0.43808697
0.43781022
0.43753386
0.43725732
0.43698075
0.43670481
0.43642846
0.43615212
0.43587577
0.43559983
0.43532368
0.43504754
0.43477179
0.43449586
0.43421971
0.43394417
0.43366824
0.43339249
0.43311698
0.43284123
0.43256551
0.43228997
0.43201444
0.43173892
0.43146360
0.43118806
0.43091294
0.43063762
0.43036208
0.43008718
0.42981185
0.42953693
0.42926181
0.42898691
0.42871179
0.42843687
0.42816217
0.42788725
0.42761255
0.42733763
0.42706312
0.42678843
0.42651392
0.42623963
0.42596491
0.42569062
0.42541612
0.42514182
0.42486753
0.42459344
0.42431934
0.42404483
0.42377096
0.42349666
0.42322277
0.42294909
0.42267479
0.42240111
0.42212742
0.42185334
0.42157987
0.42130618
0.42103231
0.42075883
0.42048555
0.42021168
0.41993841
0.41966513
0.41939186
0.41911839
0.41884513
0.41857205
0.41829900
0.41802553
0.41775266
0.41747959
0.41720674
0.41693388
0.41666060
0.41638796
0.41611510
0.41584245
0.41556979
0.41529735
0.41502449
0.41475183
0.41447939
0.41420693
0.41393469
0.41366225
0.41339000
0.41311777
0.41284551
0.41257349
0.41230103
0.41202900
0.41175696
0.41148492
0.41121290
0.41094106
0.41066923
0.41039740
0.41012556
0.40985394
0.40958232
0.40931070
0.40903905
0.40876743
0.40849602
0.40822480
0.40795359
0.40768216
0.40741075
0.40713953
0.40686833
0.40659710
0.40632588
0.40605487
0.40578388
0.40551308
0.40524206
0.40497126
0.40470025
0.40442945
0.40415865
0.40388824
0.40361765
0.40334685
0.40307624
0.40280565
0.40253545
0.40226507
0.40199446
0.40172408
0.40145410
0.40118370
0.40091350
0.40064331
0.40037333
0.40010335
0.39983318
0.39956339
0.39929341
0.39902343
0.39875386
0.39848407
0.39821409
0.39794474
0.39767495
0.39740518
0.39713581
0.39686625
0.39659709
0.39632750
0.39605794
0.39578878
0.39551941
0.39525046
0.39498109
0.39471214
0.39444298
0.39417403
0.39390487
0.39363613
0.39336716
0.39309842
0.39282947
0.39256092
0.39229197
0.39202342
0.39175468
0.39148612
0.39121739
0.39094904
0.39068092
0.39041215
0.39014402
0.38987547
0.38960734
0.38933942
0.38907087
0.38880295
0.38853461
0.38826667
0.38799896
0.38773084
0.38746289
0.38719519
0.38692725
0.38665954
0.38639181
0.38612429
0.38585658
0.38558906
0.38532154
0.38505381
0.38478650
0.38451919
0.38425188
0.38398457
0.38371705
0.38344995
0.38318285
0.38291594
0.38264885
0.38238154
0.38211463
0.38184774
0.38158083
0.38131413
0.38104724
0.38078033
0.38051363
0.38024695
0.37998047
0.37971377
0.37944728
0.37918079
0.37891451
0.37864802
0.37838172
0.37811544
0.37784917
0.37758308
0.37731659
0.37705052
0.37678443
0.37651836
0.37625228
0.37598642
0.37572075
0.37545487
0.37518899
0.37492332
0.37465766
0.37439180
0.37412632
0.37386065
0.37359498
0.37332953
0.37306407
0.37279861
0.37253315
0.37226809
0.37200285
0.37173758
0.37147233
0.37120727
0.37094203
0.37067697
0.37041212
0.37014708
0.36988224
0.36961718
0.36935233
0.36908790
0.36882306
0.36855821
0.36829357
0.36802912
0.36776449
0.36750006
0.36723542
0.36697118
0.36670676
0.36644233
0.36617830
0.36591386
0.36564964
0.36538561
0.36512138
0.36485737
0.36459353
0.36432932
0.36406529
0.36380168
0.36353765
0.36327405
0.36301023
0.36274639
0.36248279
0.36221918
0.36195576
0.36169216
0.36142876
0.36116514
0.36090174
0.36063853
0.36037493
0.36011193
0.35984851
0.35958552
0.35932212
0.35905931
0.35879613
0.35853313
0.35827033
0.35800733
0.35774454
0.35748155
0.35721897
0.35695598
0.35669338
0.35643099
0.35616821
0.35590563
0.35564304
0.35538067
0.35511829
0.35485569
0.35459351
0.35433136
0.35406897
0.35380680
0.35354483
0.35328245
0.35302048
0.35275852
0.35249655
0.35223438
0.35197260
0.35171085
0.35144907
0.35118710
0.35092556
0.35066400
0.35040243
0.35014089
0.34987911
0.34961757
0.34935621
0.34909486
0.34883350
0.34857193
0.34831079
0.34804944
0.34778829
0.34752736
0.34726621
0.34700526
0.34674411
0.34648297
0.34622203
0.34596110
0.34570035
0.34543961
0.34517889
0.34491814
0.34465761
0.34439688
0.34413635
0.34387581
0.34361528
0.34335495
0.34309444
0.34283410
0.34257377
0.34231345
0.34205333
0.34179301
0.34153290
0.34127276
0.34101265
0.34075274
0.34049303
0.34023311
0.33997320
0.33971328
0.33945338
0.33919366
0.33893395
0.33867426
0.33841475
0.33815525
0.33789553
0.33763603
0.33737653
0.33711702
0.33685794
0.33659863
0.33633933
0.33608004
0.33582115
0.33556185
0.33530275
0.33504346
0.33478477
0.33452569
0.33426659
0.33400772
0.33374903
0.33349014
0.33323146
0.33297277
0.33271409
0.33245541
0.33219693
0.33193825
0.33167978
0.33142152
0.33116304
0.33090457
0.33064629
0.33038803
0.33012995
0.32987169
0.32961362
0.32935536
0.32909728
0.32883942
0.32858116
0.32832351
0.32806543
0.32780778
0.32754971
0.32729227
0.32703440
0.32677675
0.32651910
0.32626166
0.32600380
0.32574654
0.32548889
0.32523166
0.32497441
0.32471676
0.32445972
0.32420227
0.32394523
0.32368819
0.32343075
0.32317392
0.32291666
0.32265983
0.32240300
0.32214577
0.32188913
0.32163230
0.32137547
0.32111884
0.32086222
0.32060539
0.32034877
0.32009234
0.31983593
0.31957910
0.31932288
0.31906644
0.31881024
0.31855360
0.31829759
0.31804139
0.31778517
0.31752916
0.31727273
0.31701693
0.31676091
0.31650490
0.31624910
0.31599330
0.31573708
0.31548149
0.31522567
0.31497008
0.31471449
0.31445888
0.31420329
0.31394768
0.31369230
0.31343648
0.31318110
0.31292591
0.31267050
0.31241531
0.31215993
0.31190474
0.31164976
0.31139457
0.31113957
0.31088440
0.31062940
0.31037442
0.31011965
0.30986467
0.30960988
0.30935511
0.30910034
0.30884597
0.30859118
0.30833662
0.30808204
0.30782748
0.30757290
0.30731853
0.30706397
0.30680960
0.30655563
0.30630129
0.30604711
0.30579276
0.30553860
0.30528442
0.30503068
0.30477652
0.30452257
0.30426860
0.30401465
0.30376089
0.30350715
0.30325318
0.30299944
0.30274589
0.30249216
0.30223861
0.30198527
0.30173172
0.30147796
0.30122462
0.30097128
0.30071794
0.30046460
0.30021147
0.29995813
0.29970522
0.29945188
0.29919873
0.29894581
0.29869268
0.29843953
0.29818682
0.29793389
0.29768116
0.29742824
0.29717572
0.29692280
0.29667028
0.29641756
0.29616483
0.29591231
0.29565979
0.29540748
0.29515475
0.29490266
0.29465014
0.29439804
0.29414592
0.29389340
0.29364152
0.29338919
0.29313709
0.29288499
0.29263308
0.29238117
0.29212908
0.29187738
0.29162526
0.29137358
0.29112189
0.29086998
0.29061849
0.29036700
0.29011510
0.28986361
0.28961233
0.28936063
0.28910934
0.28885806
0.28860636
0.28835529
0.28810400
0.28785293
0.28760142
0.28735035
0.28709948
0.28684839
0.28659711
0.28634623
0.28609536
0.28584450
0.28559383
0.28534275
0.28509208
0.28484141
0.28459075
0.28434008
0.28408960
0.28383894
0.28358827
0.28333781
0.28308736
0.28283709
0.28258663
0.28233636
0.28208612
0.28183585
0.28158579
0.28133555
0.28108549
0.28083544
0.28058540
0.28033555
0.28008529
0.27983544
0.27958559
0.27933596
0.27908611
0.27883648
0.27858682
0.27833718
0.27808755
0.27783791
0.27758825
0.27733883
0.27708940
0.27683996
0.27659053
0.27634108
0.27609185
0.27584284
0.27559361
0.27534437
0.27509514
0.27484611
0.27459710
0.27434787
0.27409924
0.27385022
0.27360140
0.27335238
0.27310356
0.27285496
0.27260633
0.27235751
0.27210891
0.27186049
0.27161189
0.27136326
0.27111466
0.27086645
0.27061804
0.27036964
0.27012144
0.26987302
0.26962482
0.26937682
0.26912862
0.26888022
0.26863242
0.26838423
0.26813622
0.26788843
0.26764044
0.26739284
0.26714485
0.26689685
0.26664928
0.26640147
0.26615409
0.26590630
0.26565892
0.26541113
0.26516354
0.26491637
0.26466879
0.26442141
0.26417402
0.26392685
0.26367946
0.26343229
0.26318511
0.26293815
0.26269119
0.26244380
0.26219703
0.26194985
0.26170310
0.26145593
0.26120936
0.26096259
0.26071562
0.26046906
0.26022252
0.25997553
0.25972918
0.25948242
0.25923586
0.25898951
0.25874294
0.25849659
0.25825023
0.25800409
0.25775753
0.25751138
0.25726524
0.25701889
0.25677274
0.25652679
0.25628086
0.25603471
0.25578876
0.25554283
0.25529708
0.25505134
0.25480520
0.25455945
0.25431373
0.25406820
0.25382266
0.25357713
0.25333120
0.25308566
0.25284032
0.25259481
0.25234946
0.25210414
0.25185882
0.25161371
0.25136838
0.25112325
0.25087772
0.25063260
0.25038768
0.25014257
0.24989765
0.24965253
0.24940761
0.24916290
0.24891800
0.24867307
0.24842836
0.24818365
0.24793896
0.24769424
0.24744974
0.24720503
0.24696093
0.24671642
0.24647192
0.24622742
0.24598313
0.24573860
0.24549431
0.24525002
0.24500592
0.24476163
0.24451773
0.24427365
0.24402955
0.24378545
0.24354137
0.24329747
0.24305379
0.24280990
0.24256601
0.24232214
0.24207865
0.24183496
0.24159109
0.24134739
0.24110413
0.24086045
0.24061698
0.24037329
0.24013022
0.23988675
0.23964326
0.23940021
0.23915693
0.23891346
0.23867059
0.23842731
0.23818405
0.23794119
0.23769812
0.23745505
0.23721221
0.23696914
0.23672649
0.23648362
0.23624055
0.23599809
0.23575523
0.23551279
0.23526993
0.23502749
0.23478482
0.23454259
0.23429994
0.23405769
0.23381503
0.23357278
0.23333034
0.23308830
0.23284584
0.23260380
0.23236157
0.23211953
0.23187728
0.23163524
0.23139320
0.23115137
0.23090954
0.23066750
0.23042567
0.23018405
0.22994201
0.22970037
0.22945854
0.22921692
0.22897549
0.22873365
0.22849222
0.22825082
0.22800917
0.22776798
0.22752654
0.22728532
0.22704392
0.22680270
0.22656148
0.22632047
0.22607904
0.22583803
0.22559702
0.22535601
0.22511479
0.22487399
0.22463317
0.22439237
0.22415157
0.22391056
0.22366974
0.22342915
0.22318854
0.22294795
0.22270734
0.22246675
0.22222635
0.22198555
0.22174515
0.22150475
0.22126436
0.22102417
0.22078377
0.22054358
0.22030339
0.22006320
0.21982301
0.21958303
0.21934305
0.21910286
0.21886307
0.21862310
0.21838312
0.21814333
0.21790335
0.21766358
0.21742379
0.21718421
0.21694444
0.21670487
0.21646510
0.21622552
0.21598615
0.21574678
0.21550741
0.21526783
0.21502849
0.21478912
0.21454994
0.21431057
0.21407162
0.21383246
0.21359331
0.21335413
0.21311497
0.21287581
0.21263705
0.21239810
0.21215916
0.21192019
0.21168164
0.21144269
0.21120393
0.21096520
0.21072665
0.21048810
0.21024934
0.21001100
0.20977246
0.20953370
0.20929517
0.20905702
0.20881868
0.20858014
0.20834201
0.20810367
0.20786573
0.20762740
0.20738906
0.20715133
0.20691299
0.20667527
0.20643714
0.20619899
0.20596126
0.20572335
0.20548562
0.20524768
0.20501016
0.20477225
0.20453473
0.20429700
0.20405949
0.20382176
0.20358445
0.20334672
0.20310942
0.20287190
0.20263457
0.20239727
0.20215996
0.20192284
0.20168554
0.20144842
0.20121111
0.20097421
0.20073711
0.20049999
0.20026308
0.20002599
0.19978908
0.19955239
0.19931529
0.19907859
0.19884190
0.19860499
0.19836850
0.19813181
0.19789530
0.19765860
0.19742212
0.19718563
0.19694893
0.19671264
0.19647636
0.19624006
0.19600379
0.19576730
0.19553122
0.19529494
0.19505885
0.19482277
0.19458649
0.19435041
0.19411453
0.19387865
0.19364278
0.19340690
0.19317084
0.19293496
0.19269927
0.19246342
0.19222773
0.19199228
0.19175661
0.19152095
0.19128547
0.19105002
0.19081454
0.19057908
0.19034363
0.19010836
0.18987291
0.18963764
0.18940238
0.18916713
0.18893208
0.18869681
0.18846176
0.18822670
0.18799164
0.18775661
0.18752174
0.18728671
0.18705184
0.18681700
0.18658215
0.18634731
0.18611246
0.18587802
0.18564338
0.18540875
0.18517409
0.18493946
0.18470503
0.18447080
0.18423635
0.18400193
0.18376748
0.18353304
0.18329902
0.18306480
0.18283036
0.18259612
0.18236189
0.18212807
0.18189405
0.18165981
0.18142600
0.18119197
0.18095816
0.18072414
0.18049051
0.18025649
0.18002267
0.17978926
0.17955544
0.17932161
0.17908822
0.17885459
0.17862118
0.17838757
0.17815395
0.17792074
0.17768735
0.17745415
0.17722073
0.17698732
0.17675412
0.17652091
0.17628792
0.17605450
0.17582172
0.17558852
0.17535552
0.17512251
0.17488973
0.17465652
0.17442393
0.17419093
0.17395815
0.17372535
0.17349275
0.17325976
0.17302738
0.17279480
0.17256200
0.17232962
0.17209702
0.17186466
0.17163228
0.17139968
0.17116751
0.17093492
0.17070274
0.17047057
0.17023819
0.17000620
0.16977424
0.16954207
0.16930989
0.16907791
0.16884595
0.16861399
0.16838200
0.16815025
0.16791848
0.16768651
0.16745474
0.16722318
0.16699140
0.16675965
0.16652809
0.16629653
0.16606496
0.16583361
0.16560205
0.16537049
0.16513913
0.16490778
0.16467643
0.16444529
0.16421414
0.16398277
0.16375142
0.16352028
0.16328932
0.16305818
0.16282725
0.16259630
0.16236535
0.16213441
0.16190346
0.16167272
0.16144179
0.16121104
0.16098030
0.16074958
0.16051905
0.16028831
0.16005778
0.15982724
0.15959671
0.15936618
0.15913565
0.15890531
0.15867477
0.15844445
0.15821413
0.15798421
0.15775389
0.15752354
0.15729343
0.15706330
0.15683319
0.15660306
0.15637295
0.15614324
0.15591331
0.15568341
0.15545349
0.15522357
0.15499386
0.15476415
0.15453444
0.15430451
0.15407480
0.15384551
0.15361580
0.15338630
0.15315659
0.15292728
0.15269778
0.15246849
0.15223917
0.15200988
0.15178038
0.15155128
0.15132199
0.15109289
0.15086379
0.15063471
0.15040540
0.15017651
0.14994743
0.14971873
0.14948965
0.14926054
0.14903186
0.14880297
0.14857450
0.14834561
0.14811672
0.14788823
0.14765936
0.14743087
0.14720219
0.14697391
0.14674523
0.14651697
0.14628829
0.14606001
0.14583154
0.14560347
0.14537498
0.14514693
0.14491886
0.14469037
0.14446251
0.14423425
0.14400618
0.14377832
0.14355004
0.14332218
0.14309411
0.14286646
0.14263860
0.14241074
0.14218288
0.14195542
0.14172735
0.14149991
0.14127224
0.14104459
0.14081694
0.14058948
0.14036223
0.14013458
0.13990714
0.13967989
0.13945264
0.13922499
0.13899774
0.13877070
0.13854345
0.13831601
0.13808902
0.13786198
0.13763494
0.13740811
0.13718107
0.13695382
0.13672699
0.13650014
0.13627331
0.13604648
0.13581984
0.13559301
0.13536640
0.13513976
0.13491293
0.13468629
0.13445967
0.13423324
0.13400683
0.13378040
0.13355397
0.13332755
0.13310114
0.13287492
0.13264849
0.13242227
0.13219605
0.13196983
0.13174382
0.13151761
0.13129160
0.13106559
0.13083956
0.13061355
0.13038775
0.13016193
0.12993614
0.12971013
0.12948431
0.12925851
0.12903290
0.12880711
0.12858171
0.12835610
0.12813051
0.12790490
0.12767929
0.12745371
0.12722852
0.12700312
0.12677772
0.12655232
0.12632693
0.12610195
0.12587655
0.12565136
0.12542617
0.12520118
0.12497599
0.12475101
0.12452601
0.12430103
0.12407606
0.12385127
0.12362629
0.12340129
0.12317672
0.12295195
0.12272716
0.12250258
0.12227782
0.12205303
0.12182866
0.12160389
0.12137953
0.12115495
0.12093037
0.12070621
0.12048164
0.12025746
0.12003309
0.11980894
0.11958457
0.11936041
0.11913623
0.11891229
0.11868792
0.11846395
0.11823980
0.11801604
0.11779188
0.11756812
0.11734397
0.11712021
0.11689626
0.11667272
0.11644896
0.11622520
0.11600145
0.11577771
0.11555416
0.11533081
0.11510707
0.11488352
0.11466017
0.11443662
0.11421328
0.11398995
0.11376661
0.11354325
0.11332013
0.11309658
0.11287364
0.11265052
