corrn_curve_cubicv3
1.73103077
1.73011585
1.72919950
1.72828426
1.72736759
1.72645209
1.72553636
1.72462053
1.72370448
1.72278827
1.72187322
1.72095675
1.72004139
1.71912453
1.71820884
1.71729299
1.71637698
1.71546081
1.71454574
1.71362925
1.71271392
1.71179711
1.71088273
1.70996686
1.70905089
1.70813470
1.70721835
1.70630317
1.70538657
1.70447107
1.70355541
1.70263959
1.70172361
1.70080747
1.69989244
1.69897599
1.69806070
1.69714526
1.69622832
1.69531249
1.69439657
1.69348176
1.69256546
1.69164906
1.69073377
1.68981832
1.68890271
1.68798561
1.68707102
1.68615494
1.68523870
1.68432363
1.68340708
1.68249163
1.68157609
1.68066039
1.67974447
1.67882845
1.67791222
1.67699588
1.67608201
1.67516529
1.67424976
1.67333407
1.67241695
1.67150228
1.67058612
1.66967113
1.66875465
1.66783929
1.66692383
1.66600822
1.66509239
1.66417646
1.66326038
1.66234541
1.66142894
1.66051373
1.65959829
1.65868270
1.65776567
1.65685104
1.65593504
1.65501882
1.65410244
1.65318725
1.65227318
1.65135633
1.65044066
1.64952485
1.64860880
1.64769395
1.64677767
1.64586250
1.64494725
1.64403110
1.64311546
1.64220035
1.64128380
1.64036904
1.63945346
1.63853840
1.63762183
1.63670645
1.63579085
1.63487449
1.63395932
1.63304393
1.63212912
1.63121342
1.63029696
1.62938162
1.62846619
1.62755122
1.62663542
1.62571946
1.62480402
1.62388850
1.62297336
1.62205813
1.62114275
1.62022586
1.61931085
1.61839500
1.61747961
1.61656481
1.61564911
1.61473400
1.61381867
1.61290325
1.61198761
1.61107249
1.61015654
1.60924051
1.60832493
1.60740987
1.60649399
1.60557862
1.60466311
1.60374811
1.60283222
1.60191692
1.60100276
1.60008715
1.59917200
1.59825677
1.59734131
1.59642577
1.59551001
1.59459477
1.59367945
1.59276391
1.59184821
1.59093304
1.59001840
1.58910354
1.58818791
1.58727213
1.58635687
1.58544147
1.58452720
1.58361149
1.58269624
1.58178091
1.58086535
1.57995101
1.57903521
1.57811988
1.57720440
1.57628883
1.57537434
1.57445908
1.57354367
1.57262947
1.57171376
1.57079857
1.56988324
1.56896836
1.56805341
1.56713762
1.56622297
1.56530749
1.56439261
1.56347820
1.56256226
1.56164823
1.56073274
1.55981704
1.55890255
1.55798723
1.55707175
1.55615750
1.55524172
1.55432778
1.55341170
1.55249753
1.55158245
1.55066797
1.54975197
1.54883781
1.54792213
1.54700767
1.54609244
1.54517837
1.54426277
1.54334839
1.54243249
1.54151850
1.54060299
1.53968870
1.53877288
1.53785898
1.53694417
1.53602859
1.53511424
1.53419898
1.53328433
1.53237014
1.53145450
1.53054002
1.52962608
1.52871061
1.52779636
1.52688197
1.52596612
1.52505212
1.52413728
1.52322229
1.52230777
1.52139317
1.52047911
1.51956353
1.51864910
1.51773460
1.51682056
1.51590507
1.51499074
1.51407626
1.51316163
1.51224623
1.51133200
1.51041761
1.50950308
1.50858909
1.50767426
1.50675928
1.50584485
1.50493027
1.50401616
1.50310197
1.50218756
1.50127308
1.50035838
1.49944429
1.49852867
1.49761422
1.49670031
1.49578556
1.49487142
1.49395707
1.49304327
1.49212862
1.49121452
1.49030020
1.48938580
1.48847126
1.48755726
1.48664242
1.48572806
1.48481432
1.48389966
1.48298562
1.48207137
1.48115704
1.48024249
1.47932918
1.47841503
1.47750074
1.47658629
1.47567240
1.47475836
1.47384348
1.47292914
1.47201605
1.47110212
1.47018798
1.46927375
1.46835938
1.46744480
1.46653216
1.46561735
1.46470372
1.46378931
1.46287469
1.46196202
1.46104780
1.46013351
1.45921900
1.45830574
1.45739164
1.45647740
1.45556433
1.45465049
1.45373581
1.45282300
1.45190872
1.45099493
1.45008176
1.44916767
1.44825352
1.44733984
1.44642602
1.44551212
1.44459871
1.44368445
1.44277145
1.44185760
1.44094291
1.44003017
1.43911589
1.43820280
1.43728893
1.43637561
1.43546145
1.43454778
1.43363473
1.43272077
1.43180743
1.43089318
1.42998018
1.42906641
1.42815313
1.42724040
1.42632613
1.42541312
1.42449926
1.42358596
1.42267251
1.42175963
1.42084652
1.41993195
1.41901933
1.41810517
1.41719220
1.41627978
1.41536519
1.41445249
1.41353964
1.41262532
1.41171289
1.41079962
1.40988557
1.40897272
1.40806035
1.40714587
1.40623329
1.40532050
1.40440763
1.40349392
1.40258077
1.40166811
1.40075537
1.39984109
1.39892870
1.39801547
1.39710287
1.39619006
1.39527570
1.39436338
1.39345014
1.39253747
1.39162465
1.39071240
1.38979859
1.38888535
1.38797267
1.38705978
1.38614752
1.38523442
1.38432181
1.38340912
1.38249623
1.38158397
1.38067009
1.37975755
1.37884479
1.37793190
1.37701893
1.37610646
1.37519385
1.37428110
1.37336820
1.37245587
1.37154341
1.37063080
1.36971798
1.36880508
1.36789276
1.36698093
1.36606903
1.36515622
1.36424333
1.36333094
1.36241848
1.36150581
1.36059300
1.35968075
1.35876844
1.35785663
1.35694396
1.35603187
1.35511892
1.35420655
1.35329403
1.35238273
1.35147064
1.35055771
1.34964527
1.34873277
1.34782147
1.34690940
1.34599640
1.34508405
1.34417291
1.34326021
1.34234807
1.34143580
1.34052410
1.33961226
1.33869965
1.33778817
1.33687591
1.33596352
1.33505240
1.33414037
1.33322756
1.33231674
1.33140429
1.33049178
1.32958047
1.32866839
1.32775752
1.32684509
1.32593259
1.32502131
1.32410917
1.32319833
1.32228592
1.32137479
1.32046282
1.31955142
1.31863917
1.31772820
1.31681632
1.31590508
1.31499299
1.31408212
1.31316975
1.31225860
1.31134668
1.31043525
1.30952305
1.30861207
1.30770166
1.30678897
1.30587829
1.30496605
1.30405509
1.30314471
1.30223205
1.30132140
1.30040918
1.29949818
1.29858783
1.29767592
1.29676451
1.29585375
1.29494207
1.29403104
1.29311980
1.29220914
1.29129769
1.29038676
1.28947569
1.28856377
1.28765314
1.28674238
1.28583148
1.28492044
1.28400855
1.28309796
1.28218723
1.28127702
1.28036602
1.27945416
1.27854354
1.27763285
1.27672195
1.27581164
1.27490054
1.27398923
1.27307851
1.27216772
1.27125745
1.27034632
1.26943577
1.26852509
1.26761499
1.26670404
1.26579360
1.26488310
1.26397246
1.26306233
1.26215070
1.26124037
1.26032984
1.25941925
1.25850844
1.25759830
1.25668867
1.25577818
1.25486756
1.25395752
1.25304735
1.25213640
1.25122661
1.25031603
1.24940532
1.24849520
1.24758494
1.24667455
1.24576403
1.24485474
1.24394467
1.24303439
1.24212405
1.24121422
1.24030361
1.23939352
1.23848401
1.23757372
1.23666395
1.23575332
1.23484328
1.23393455
1.23302425
1.23211381
1.23120395
1.23029462
1.22938450
1.22847497
1.22756458
1.22665544
1.22574551
1.22483545
1.22392663
1.22301623
1.22210649
1.22119727
1.22028719
1.21937778
1.21846881
1.21755841
1.21664853
1.21573996
1.21482981
1.21392098
1.21301129
1.21210139
1.21119216
1.21028280
1.20937396
1.20846433
1.20755529
1.20664533
1.20573603
1.20482725
1.20391696
1.20300865
1.20209875
1.20119017
1.20028007
1.19937189
1.19846226
1.19755315
1.19664456
1.19573519
1.19482642
1.19391678
1.19300847
1.19209857
1.19118992
1.19028187
1.18937231
1.18846334
1.18755416
1.18664566
1.18573695
1.18482738
1.18391914
1.18301084
1.18210161
1.18119297
1.18028494
1.17937531
1.17846701
1.17755858
1.17665002
1.17574060
1.17483243
1.17392421
1.17301578
1.17210656
1.17119868
1.17029059
1.16938237
1.16847409
1.16756488
1.16665634
1.16574833
1.16484019
1.16393192
1.16302279
1.16211499
1.16120632
1.16029826
1.15939080
1.15848248
1.15757469
1.15666611
1.15575740
1.15484929
1.15394105
1.15303334
1.15212550
1.15121760
1.15030950
1.14940201
1.14849372
1.14758597
1.14667808
1.14577007
1.14486266
1.14395446
1.14304672
1.14213892
1.14123099
1.14032367
1.13941549
1.13850791
1.13760012
1.13669228
1.13578505
1.13487835
1.13397078
1.13306316
1.13215534
1.13124746
1.13034012
1.12943264
1.12852512
1.12761812
1.12671100
1.12580301
1.12489563
1.12398812
1.12308048
1.12217418
1.12126695
1.12035966
1.11945225
1.11854611
1.11763843
1.11673130
1.11582337
1.11491745
1.11401000
1.11310235
1.11219539
1.11128896
1.11038166
1.10947497
1.10856816
1.10766122
1.10675415
1.10584769
1.10494037
1.10403365
1.10312755
1.10222058
1.10131349
1.10040693
1.09950032
1.09859424
1.09768737
1.09678105
1.09587392
1.09496734
1.09406137
1.09315387
1.09224838
1.09134129
1.09043555
1.08952821
1.08862296
1.08771610
1.08680985
1.08590348
1.08499772
1.08409036
1.08318501
1.08227813
1.08137261
1.08046688
1.07955963
1.07865439
1.07774762
1.07684213
1.07593652
1.07502937
1.07412425
1.07321751
1.07231213
1.07140663
1.07049959
1.06959451
1.06868863
1.06778262
1.06687723
1.06597172
1.06506533
1.06415957
1.06325434
1.06234907
1.06144218
1.06053732
1.05963160
1.05872657
1.05781985
1.05691523
1.05600982
1.05510421
1.05419922
1.05329262
1.05238812
1.05148276
1.05057727
1.04967240
1.04876740
1.04786079
1.04695629
1.04605084
1.04514609
1.04424122
1.04333614
1.04243102
1.04152570
1.04062107
1.03971475
1.03880987
1.03790554
1.03700034
1.03609576
1.03519039
1.03428556
1.03338135
1.03247628
1.03157175
1.03066650
1.02976172
1.02885689
1.02795269
1.02704762
1.02614309
1.02523852
1.02433382
1.02343041
1.02252539
1.02162107
1.02071655
1.01981198
1.01890721
1.01800307
1.01709812
1.01619373
1.01529064
1.01438608
1.01348199
1.01257718
1.01167292
1.01076846
1.00986545
1.00896083
1.00805682
1.00715262
1.00624837
1.00534467
1.00444093
1.00353624
1.00263224
1.00172880
1.00082457
0.99992088
0.99901782
0.99811389
0.99720909
0.99630567
0.99540212
0.99449845
0.99359466
0.99269149
0.99178745
0.99088480
0.98998052
0.98907679
0.98817376
0.98726987
0.98636577
0.98546313
0.98455954
0.98365659
0.98275283
0.98185038
0.98094638
0.98004369
0.97914012
0.97823643
0.97733337
0.97643019
0.97552764
0.97462347
0.97372143
0.97281776
0.97191548
0.97101300
0.97010897
0.96920708
0.96830348
0.96740059
0.96649759
0.96559513
0.96469256
0.96378919
0.96288713
0.96198343
0.96108121
0.96017878
0.95927548
0.95837357
0.95747154
0.95656788
0.95566560
0.95476396
0.95386069
0.95295874
0.95205674
0.95115311
0.95025162
0.94934918
0.94844745
0.94754402
0.94664205
0.94574065
0.94483836
0.94393528
0.94303351
0.94213162
0.94122969
0.94032832
0.93942531
0.93852370
0.93762197
0.93672012
0.93581815
0.93491674
0.93401453
0.93311220
0.93221050
0.93130869
0.93040744
0.92950539
0.92860390
0.92770237
0.92680064
0.92589955
0.92499766
0.92409633
0.92319488
0.92229339
0.92139246
0.92048990
0.91958873
0.91868745
0.91778680
0.91688528
0.91598440
0.91508332
0.91418220
0.91328096
0.91237960
0.91147805
0.91057721
0.90967626
0.90877511
0.90787392
0.90697253
0.90607179
0.90517176
0.90427078
0.90336968
0.90246846
0.90156788
0.90066726
0.89976569
0.89886620
0.89796515
0.89706475
0.89616346
0.89526282
0.89436282
0.89346263
0.89256163
0.89166128
0.89076149
0.88986090
0.88896012
0.88805930
0.88715980
0.88625943
0.88535901
0.88445917
0.88355844
0.88265836
0.88175892
0.88085861
0.87995749
0.87905839
0.87815779
0.87725769
0.87635832
0.87545806
0.87455914
0.87365865
0.87275804
0.87185884
0.87095868
0.87005994
0.86915963
0.86826065
0.86736010
0.86646013
0.86556156
0.86466143
0.86376187
0.86286219
0.86196316
0.86106325
0.86016398
0.85926461
0.85836588
0.85746703
0.85656653
0.85566814
0.85476818
0.85386964
0.85296944
0.85207135
0.85117238
0.85027260
0.84937417
0.84847569
0.84757549
0.84667747
0.84577788
0.84487886
0.84398050
0.84308125
0.84218265
0.84128394
0.84038588
0.83948616
0.83858787
0.83768946
0.83679017
0.83589153
0.83499347
0.83409537
0.83319638
0.83229797
0.83139952
0.83050165
0.82960366
0.82870410
0.82780588
0.82690763
0.82600995
0.82511216
0.82421425
0.82331476
0.82241662
0.82151906
0.82062077
0.81972298
0.81882515
0.81792721
0.81702992
0.81613175
0.81523415
0.81433498
0.81343723
0.81254007
0.81164209
0.81074469
0.80984649
0.80894886
0.80805189
0.80715412
0.80625615
0.80535884
0.80446141
0.80356395
0.80266629
0.80176930
0.80087142
0.79997566
0.79907832
0.79818087
0.79728330
0.79638639
0.79548852
0.79459138
0.79369414
0.79279747
0.79189999
0.79100387
0.79010694
0.78920981
0.78831258
0.78741530
0.78651861
0.78562258
0.78472567
0.78382864
0.78293157
0.78203578
0.78113919
0.78024178
0.77934488
0.77844949
0.77755245
0.77665606
0.77575878
0.77486364
0.77396691
0.77307000
0.77217459
0.77127822
0.77038104
0.76948600
0.76858929
0.76769255
0.76679717
0.76590090
0.76500452
0.76410888
0.76321227
0.76231710
0.76142105
0.76052410
0.75962929
0.75873290
0.75783795
0.75694133
0.75604615
0.75515001
0.75425538
0.75335909
0.75246417
0.75156765
0.75067250
0.74977654
0.74888194
0.74798568
0.74709086
0.74619522
0.74530018
0.74440425
0.74350898
0.74261360
0.74171889
0.74082406
0.73992835
0.73903330
0.73813892
0.73724287
0.73634819
0.73545270
0.73455787
0.73366363
0.73276781
0.73187335
0.73097886
0.73008340
0.72918946
0.72829456
0.72740032
0.72650528
0.72561082
0.72471625
0.72382235
0.72292678
0.72203267
0.72113843
0.72024409
0.71934886
0.71845508
0.71756111
0.71666710
0.71577299
0.71487798
0.71398357
0.71308991
0.71219605
0.71130217
0.71040810
0.70951399
0.70862048
0.70772537
0.70683164
0.70593779
0.70504384
0.70415056
0.70325638
0.70236288
0.70146927
0.70057555
0.69968172
0.69878856
0.69789529
0.69700113
0.69610835
0.69521475
0.69432104
0.69342793
0.69253400
0.69164075
0.69074731
0.68985454
0.68896096
0.68806797
0.68717417
0.68628096
0.68538843
0.68449579
0.68360305
0.68270940
0.68181651
0.68092344
0.68003096
0.67913766
0.67824583
0.67735310
0.67646026
0.67556724
0.67467418
0.67378102
0.67288924
0.67199664
0.67110394
0.67021104
0.66931961
0.66842658
0.66753415
0.66664169
0.66574982
0.66485785
0.66396498
0.66307358
0.66218128
0.66128809
0.66039565
0.65950452
0.65861258
0.65771974
0.65682836
0.65593609
0.65504521
0.65415273
0.65326013
0.65236971
0.65147690
0.65058627
0.64969403
0.64880161
0.64791065
0.64701887
0.64612770
0.64523563
0.64434503
0.64345283
0.64256201
0.64167030
0.64077927
0.63988734
0.63899688
0.63810474
0.63721407
0.63632250
0.63543154
0.63454054
0.63364944
0.63275895
0.63186763
0.63097692
0.63008539
0.62919525
0.62830430
0.62741316
0.62652270
0.62563143
0.62474075
0.62385077
0.62295917
0.62206897
0.62117866
0.62028746
0.61939773
0.61850710
0.61761707
0.61672623
0.61583607
0.61494581
0.61405465
0.61316488
0.61227509
0.61138512
0.61049511
0.60960421
0.60871471
0.60782438
0.60693466
0.60604484
0.60515420
0.60426416
0.60337482
0.60248536
0.60159580
0.60070613
0.59981565
0.59892577
0.59803650
0.59714648
0.59625700
0.59536829
0.59447867
0.59358895
0.59269984
0.59181070
0.59092137
0.59003203
0.58914257
0.58825372
0.58736406
0.58647500
0.58558584
0.58469665
0.58380807
0.58291859
0.58202980
0.58114091
0.58025191
0.57936288
0.57847439
0.57758515
0.57669644
0.57580771
0.57491888
0.57402994
0.57314089
0.57225325
0.57136479
0.57047623
0.56958748
0.56869870
0.56781062
0.56692315
0.56603478
0.56514638
0.56425780
0.56336912
0.56248192
0.56159390
0.56070490
0.55981659
0.55892818
0.55804126
0.55715344
0.55626471
0.55537748
0.55448934
0.55360190
0.55271355
0.55182662
0.55093807
0.55005021
0.54916376
0.54827570
0.54738744
0.54650077
0.54561311
0.54472614
0.54383835
0.54295038
0.54206390
0.54117660
0.54028991
0.53940232
0.53851463
0.53762764
0.53674054
0.53585413
0.53496602
0.53408021
0.53319270
0.53230588
0.53141888
0.53053266
0.52964473
0.52875902
0.52787168
0.52698504
0.52609822
0.52521210
0.52432435
0.52343882
0.52255247
0.52166513
0.52077930
0.51989255
0.51900659
0.51812045
0.51723339
0.51634784
0.51546059
0.51457483
0.51368897
0.51280221
0.51191687
0.51103151
0.51014524
0.50925886
0.50837311
0.50748734
0.50660146
0.50571540
0.50483012
0.50394466
0.50305837
0.50217271
0.50128774
0.50040187
0.49951598
0.49863071
0.49774533
0.49685986
0.49597509
0.49508940
0.49420362
0.49331854
0.49243336
0.49154808
0.49066349
0.48977881
0.48889314
0.48800745
0.48712246
0.48623809
0.48535290
0.48446841
0.48358374
0.48269897
0.48181417
0.48092920
0.48004493
0.47915983
0.47827535
0.47739078
0.47650618
0.47562221
0.47473733
0.47385315
0.47296887
0.47208450
0.47120002
0.47031544
0.46943148
0.46854670
0.46766262
0.46677844
0.46589570
0.46501132
0.46412675
0.46324298
0.46235902
0.46147505
0.46059089
0.45970671
0.45882397
0.45794031
0.45705664
0.45617278
0.45528883
0.45440558
0.45352223
0.45263879
0.45175443
0.45087078
0.44998865
0.44910480
0.44822165
0.44733760
0.44645499
0.44557155
0.44468881
0.44380590
0.44292296
0.44203912
0.44115671
0.44027348
0.43939087
0.43850817
0.43762544
0.43674172
0.43585953
0.43497650
0.43409484
0.43321161
0.43232821
0.43144632
0.43056353
0.42968226
0.42879926
0.42791617
0.42703451
0.42615130
0.42526945
0.42438677
0.42350553
0.42262265
0.42174129
0.42085821
0.41997658
0.41909411
0.41821309
0.41733034
0.41644920
0.41556788
0.41468484
0.41380413
0.41292178
0.41204006
0.41115906
0.41027633
0.40939513
0.40851302
0.40763243
0.40675093
0.40586934
0.40498764
0.40410739
0.40322469
0.40234432
0.40146296
0.40058159
0.39970011
0.39881927
0.39793915
0.39705738
0.39617632
0.39529590
0.39441538
0.39353322
0.39265250
0.39177250
0.39089159
0.39000984
0.38912971
0.38824932
0.38736883
0.38648906
0.38560837
0.38472677
0.38384670
0.38296645
0.38208619
0.38120583
0.38032610
0.37944555
0.37856571
0.37768569
0.37680484
0.37592462
0.37504439
0.37416480
0.37328519
0.37240540
0.37152551
0.37064553
0.36976553
0.36888616
0.36800589
0.36712633
0.36624667
0.36536692
0.36448789
0.36360794
0.36272871
0.36184939
0.36096989
0.36009037
0.35921157
0.35833259
0.35745360
0.35657369
0.35569442
0.35481514
0.35393649
0.35305702
0.35217900
0.35130006
0.35042111
0.34954198
0.34866276
0.34778352
0.34690574
0.34602704
0.34514825
0.34426935
0.34339037
0.34251292
0.34163374
0.34075529
0.33987673
0.33899882
0.33812007
0.33724205
0.33636385
0.33548563
0.33460732
0.33372965
0.33285114
0.33197246
0.33109532
0.33021735
0.32933920
0.32846177
0.32758351
0.32670507
0.32582818
0.32494963
0.32407254
0.32319454
0.32231644
0.32143989
0.32056160
0.31968477
0.31880711
0.31793018
0.31705233
0.31617520
0.31529790
0.31442140
0.31354317
0.31266640
0.31178880
0.31091266
0.31003486
0.30915854
0.30828055
0.30740403
0.30652668
0.30565080
0.30477399
0.30389709
0.30302010
0.30214309
0.30126673
0.30039102
0.29951372
0.29863708
0.29776108
0.29688424
0.29600813
0.29513193
0.29425563
0.29337916
0.29250350
0.29162609
0.29075098
0.28987503
