corrn_curve_quadratic
3.80920478
3.80282170
3.79646362
3.79009458
3.78374130
3.77739550
3.77105624
3.76473315
3.75841706
3.75209881
3.74579670
3.73950159
3.73321346
3.72693232
3.72066727
3.71440010
3.70813992
3.70189534
3.69565773
3.68942755
3.68320388
3.67698763
3.67077790
3.66457559
3.65838879
3.65220894
3.64602707
3.63987009
3.63370214
3.62755010
3.62141395
3.61527580
3.60915307
3.60302881
3.59692039
3.59081846
3.58472390
3.57864469
3.57256399
3.56648977
3.56043131
3.55437138
3.54832675
3.54228904
3.53625823
3.53023433
3.52421735
3.51820727
3.51221286
3.50621659
3.50024427
3.49426180
3.48829453
3.48233457
3.47638977
3.47044359
3.46450387
3.45857970
3.45266283
3.44675240
3.44084021
3.43495215
3.42906234
3.42317939
3.41731191
3.41144269
3.40558892
3.39974157
3.39390151
3.38806829
3.38224150
3.37642198
3.37061740
3.36481965
3.35902067
3.35323660
3.34745936
3.34168937
3.33592579
3.33016904
3.32442756
3.31869247
3.31295662
3.30723516
3.30152093
3.29581352
3.29012087
3.28441871
3.27873966
3.27305949
3.26739404
3.26173580
3.25608393
3.25043471
3.24479685
3.23916951
3.23354895
3.22793518
3.22233190
3.21673581
3.21114237
3.20556394
3.19997995
3.19441506
3.18885652
3.18330516
3.17776015
3.17222639
3.16669490
3.16117425
3.15566441
3.15015767
3.14466133
3.13917173
3.13368887
3.12821276
3.12274743
3.11728884
3.11183697
3.10639144
3.10095305
3.09553302
3.09011209
3.08469788
3.07928999
3.07389322
3.06850277
3.06311903
3.05774240
3.05237606
3.04702039
3.04166746
3.03632519
3.03098566
3.02565678
3.02033460
3.01502659
3.00971779
3.00441962
2.99912773
2.99384292
2.98857223
2.98330079
2.97803954
2.97278536
2.96754524
2.96230401
2.95707373
2.95184972
2.94663974
2.94142944
2.93622929
2.93103926
2.92585242
2.92067223
2.91551022
2.91034333
2.90518655
2.90004445
2.89490477
2.88976830
2.88464953
2.87952976
2.87442423
2.86931811
2.86422962
2.85914017
2.85405734
2.84898870
2.84392289
2.83886747
2.83381866
2.82877984
2.82374048
2.81871899
2.81369623
2.80868793
2.80367837
2.79868326
2.79369063
2.78871205
2.78373670
2.77877128
2.77380873
2.76885647
2.76391080
2.75897539
2.75404655
2.74912060
2.74420858
2.73929945
2.73440019
2.72950785
2.72461843
2.71974250
2.71487677
2.71000703
2.70515440
2.70030831
2.69546188
2.69063250
2.68580604
2.68098287
2.67617274
2.67137311
2.66657640
2.66178263
2.65700258
2.65222904
2.64746168
2.64269762
2.63794722
2.63320298
2.62846561
2.62373795
2.61901005
2.61429541
2.60958727
2.60488563
2.60019402
2.59550221
2.59082360
2.58615148
2.58148901
2.57682988
2.57218073
2.56753807
2.56290504
2.55827534
2.55365212
2.54903852
2.54443174
2.53983108
2.53524071
2.53065645
2.52607866
2.52150734
2.51694626
2.51239130
2.50784279
2.50330073
2.49876821
2.49423940
2.48971978
2.48520694
2.48070395
2.47620400
2.47171355
2.46722987
2.46275229
2.45829128
2.45382690
2.44937198
2.44492349
2.44048512
2.43604948
2.43162362
2.42720417
2.42279114
2.41839119
2.41399431
2.40960384
2.40521944
2.40084179
2.39647385
2.39211528
2.38776014
2.38341435
2.37907200
2.37474228
2.37041600
2.36609577
2.36178520
2.35748428
2.35318646
2.34889535
2.34461030
2.34033779
2.33606872
2.33180603
2.32755294
2.32330620
2.31906261
2.31483150
2.31060384
2.30638544
2.30217659
2.29796800
2.29376897
2.28958235
2.28539569
2.28122174
2.27705094
2.27288681
2.26873471
2.26458325
2.26044381
2.25630786
2.25218453
2.24806123
2.24395022
2.23984271
2.23574745
2.23165258
2.22757025
2.22348770
2.21942079
2.21535428
2.21129687
2.20724608
2.20320436
2.19916586
2.19513982
2.19111392
2.18710045
2.18309603
2.17909207
2.17509746
2.17110914
2.16713015
2.16316016
2.15919068
2.15523324
2.15128236
2.14733142
2.14339610
2.13946674
2.13553762
2.13162078
2.12771320
2.12380618
2.11991110
2.11602197
2.11213938
2.10826007
2.10439295
2.10052911
2.09667713
2.09282312
2.08898361
2.08515034
2.08132359
2.07749720
2.07368555
2.06988012
2.06607828
2.06228791
2.05850143
2.05471798
2.05094655
2.04717844
2.04342233
2.03966953
2.03592582
2.03218544
2.02845672
2.02472589
2.02100986
2.01729687
2.01359323
2.00989549
2.00620707
2.00252171
1.99884538
1.99517551
1.99151154
1.98785657
1.98420496
1.98056234
1.97692590
1.97329563
1.96967432
1.96605918
1.96244742
1.95884712
1.95525047
1.95165998
1.94807815
1.94450275
1.94093873
1.93737563
1.93382116
1.93027282
1.92673091
1.92319487
1.91966770
1.91614395
1.91263450
1.90912573
1.90562310
1.90212932
1.89864165
1.89516012
1.89168713
1.88822053
1.88475737
1.88130274
1.87785449
1.87441743
1.87098380
1.86755390
1.86413249
1.86072249
1.85731356
1.85391311
1.85052139
1.84713313
1.84375098
1.84037754
1.83701280
1.83365127
1.83029610
1.82695221
1.82360920
1.82027721
1.81694896
1.81362653
1.81031559
1.80700789
1.80370394
1.80041351
1.79712402
1.79384570
1.79057088
1.78730467
1.78404223
1.78078560
1.77753984
1.77429784
1.77106442
1.76783453
1.76461571
1.76140017
1.75819342
1.75499021
1.75179529
1.74860665
1.74542628
1.74225193
1.73908138
1.73592156
1.73276283
1.72961504
1.72647082
1.72333752
1.72021023
1.71708407
1.71396880
1.71085711
1.70775629
1.70466122
1.70156755
1.69848473
1.69541007
1.69233683
1.68927416
1.68621771
1.68316463
1.68012016
1.67708383
1.67405347
1.67102672
1.66800833
1.66499827
1.66199183
1.65899137
1.65599923
1.65301307
1.65003521
1.64705865
1.64409248
1.64113484
1.63818059
1.63523486
1.63229484
1.62935640
1.62642829
1.62350843
1.62059475
1.61768677
1.61478474
1.61188866
1.60899624
1.60611431
1.60323831
1.60036825
1.59750412
1.59464817
1.59179814
1.58895382
1.58611564
1.58328339
1.58045906
1.57764087
1.57482838
1.57202180
1.56922356
1.56642881
1.56364217
1.56086165
1.55808901
1.55532008
1.55255924
1.54980429
1.54705524
1.54431209
1.54157678
1.53884542
1.53612210
1.53340875
1.53069934
1.52799367
1.52529582
1.52260405
1.51991795
1.51724005
1.51456571
1.51190356
1.50924306
1.50658843
1.50393988
1.50129908
1.49866623
1.49603714
1.49341579
1.49079842
1.48819105
1.48558746
1.48298972
1.48039968
1.47781773
1.47523733
1.47266502
1.47009855
1.46754178
1.46498881
1.46244168
1.45990239
1.45736712
1.45483949
1.45231968
1.44980170
1.44729154
1.44479118
1.44229465
1.43980195
1.43731902
1.43483974
1.43237039
1.42990469
1.42744694
1.42499285
1.42254475
1.42010441
1.41766967
1.41524266
1.41281970
1.41040427
1.40799462
1.40559268
1.40319271
1.40080424
1.39841774
1.39604082
1.39366590
1.39130053
1.38893905
1.38658691
1.38424073
1.38189638
1.37956359
1.37723098
1.37490952
1.37259030
1.37028036
1.36797801
1.36567773
1.36338522
1.36110012
1.35881893
1.35654531
1.35427925
1.35201531
1.34976073
1.34751170
1.34526518
1.34302942
1.34079956
1.33857187
1.33635330
1.33414063
1.33193527
1.32973229
1.32753838
1.32535018
1.32316945
1.32099111
1.31882007
1.31665647
1.31449858
1.31234813
1.31020165
1.30805917
1.30592583
1.30379989
1.30167793
1.29956168
1.29745265
1.29534948
1.29325031
1.29115836
1.28907393
1.28699502
1.28492013
1.28285441
1.28079254
1.27873801
1.27668750
1.27464448
1.27260844
1.27057675
1.26855058
1.26653170
1.26451849
1.26251077
1.26051050
1.25851427
1.25652530
1.25454183
1.25256417
1.25059360
1.24862724
1.24666796
1.24471449
1.24276650
1.24082572
1.23888918
1.23695968
1.23503581
1.23312068
1.23120808
1.22930266
1.22740286
1.22550869
1.22362014
1.22173723
1.21986282
1.21799266
1.21612812
1.21426920
1.21241724
1.21057239
1.20873179
1.20689666
1.20506729
1.20324633
1.20142802
1.19961678
1.19781130
1.19601417
1.19421973
1.19243234
1.19065054
1.18887577
1.18710515
1.18534140
1.18358481
1.18183237
1.18008537
1.17834551
1.17661123
1.17488377
1.17315923
1.17144153
1.16973217
1.16802713
1.16632614
1.16463347
1.16294512
1.16126479
1.15958757
1.15791849
1.15625360
1.15459683
1.15294305
1.15129750
1.14965482
1.14801903
1.14639130
1.14476659
1.14314994
1.14153894
1.13993086
1.13833211
1.13673628
1.13514870
1.13356394
1.13198857
1.13041616
1.12885068
1.12729173
1.12573729
1.12418950
1.12264597
1.12110921
1.11957909
1.11805335
1.11653437
1.11502089
1.11351155
1.11201031
1.11051444
1.10902297
1.10753809
1.10606004
1.10458494
1.10311775
1.10165617
1.10020114
1.09874921
1.09730397
1.09586538
1.09443345
1.09300348
1.09158249
1.09016698
1.08875693
1.08735224
1.08595198
1.08455835
1.08317131
1.08178963
1.08041351
1.07904275
1.07767856
1.07631771
1.07496443
1.07361672
1.07227435
1.07093852
1.06960814
1.06828211
1.06696261
1.06564964
1.06434103
1.06303892
1.06174013
1.06044890
1.05916311
1.05788369
1.05660981
1.05534031
1.05407718
1.05282061
1.05156832
1.05032248
1.04908114
1.04784614
1.04661858
1.04539541
1.04417675
1.04296440
1.04175746
1.04055592
1.03935979
1.03817005
1.03698571
1.03580677
1.03463313
1.03346691
1.03230416
1.03114766
1.02999664
1.02885102
1.02771070
1.02657763
1.02544910
1.02432586
1.02320800
1.02209561
1.02099034
1.01988952
1.01879318
1.01770311
1.01662021
1.01554177
1.01446781
1.01340011
1.01233864
1.01128253
1.01023083
1.00918630
1.00814625
1.00711148
1.00608215
1.00505978
1.00404115
1.00303031
1.00202312
1.00102137
1.00002571
0.99903538
0.99805039
0.99707155
0.99609732
0.99512987
0.99416630
0.99320878
0.99225730
0.99131044
0.99037047
0.98943503
0.98850561
0.98758005
0.98666202
0.98574786
0.98484045
0.98393767
0.98304087
0.98214871
0.98126253
0.98038165
0.97950679
0.97863659
0.97777233
0.97691337
0.97605970
0.97521203
0.97436825
0.97353179
0.97269999
0.97187347
0.97105292
0.97023629
0.96942624
0.96862220
0.96782203
0.96702854
0.96624025
0.96545665
0.96467890
0.96390707
0.96313928
0.96237798
0.96162256
0.96087178
0.96012563
0.95938599
0.95865159
0.95792245
0.95719796
0.95647933
0.95576648
0.95505894
0.95435664
0.95365900
0.95296714
0.95228114
0.95160033
0.95092475
0.95025446
0.94958880
0.94892953
0.94827544
0.94762657
0.94698293
0.94634452
0.94571186
0.94508442
0.94446121
0.94384421
0.94323289
0.94262632
0.94202548
0.94142984
0.94083937
0.94025415
0.93967457
0.93909977
0.93853065
0.93796668
0.93740797
0.93685486
0.93630650
0.93576383
0.93522631
0.93469398
0.93416684
0.93364534
0.93312901
0.93261788
0.93211234
0.93161157
0.93111639
0.93062639
0.93014115
0.92966146
0.92918739
0.92871808
0.92825469
0.92779608
0.92734267
0.92689438
0.92645131
0.92601373
0.92558167
0.92515443
0.92473232
0.92431537
0.92390392
0.92349796
0.92309681
0.92270080
0.92230995
0.92192489
0.92154464
0.92116922
0.92079985
0.92043503
0.92007534
0.91972136
0.91937224
0.91902823
0.91868937
0.91835618
0.91802759
0.91770464
0.91738654
0.91707359
0.91676622
0.91646351
0.91616615
0.91587415
0.91558701
0.91530547
0.91502855
0.91475719
0.91449072
0.91422914
0.91397333
0.91372218
0.91347653
0.91323579
0.91300032
0.91276977
0.91254468
0.91232432
0.91210941
0.91189939
0.91169464
0.91149514
0.91130040
0.91111106
0.91092663
0.91074744
0.91057317
0.91040427
0.91024029
0.91008139
0.90992768
0.90977892
0.90963547
0.90949707
0.90936352
0.90923525
0.90911213
0.90899387
0.90888076
0.90877281
0.90866981
0.90857195
0.90847914
0.90839145
0.90830866
0.90823106
0.90815855
0.90809102
0.90802848
0.90797108
0.90791871
0.90787137
0.90782903
0.90779176
0.90775955
0.90773235
0.90771019
0.90769301
0.90768091
0.90767381
0.90767174
0.90767468
0.90768263
0.90769560
0.90771357
0.90773658
0.90776457
0.90779756
0.90783556
0.90787853
0.90792654
0.90797950
0.90803747
0.90810043
0.90816839
0.90824129
0.90831924
0.90840212
0.90848998
0.90858276
0.90868060
0.90878335
0.90889116
0.90900387
0.90912155
0.90924412
0.90937177
0.90950429
0.90964178
0.90978424
0.90993166
0.91008407
0.91024131
0.91040339
0.91057056
0.91074269
0.91091963
0.91110169
0.91128856
0.91148037
0.91167697
0.91187871
0.91208520
0.91229685
0.91251324
0.91273460
0.91296052
0.91319175
0.91342774
0.91366888
0.91391454
0.91416513
0.91442087
0.91468153
0.91494671
0.91521703
0.91549228
0.91577222
0.91605707
0.91634711
0.91664184
0.91694121
0.91724576
0.91755526
0.91786910
0.91818816
0.91851185
0.91884071
0.91917450
0.91951263
0.91985621
0.92020414
0.92055727
0.92091531
0.92127762
0.92164543
0.92201756
0.92239487
0.92277676
0.92316386
0.92355519
0.92395173
0.92435286
0.92475954
0.92517007
0.92558617
0.92600642
0.92643233
0.92686234
0.92729763
0.92773705
0.92818206
0.92863121
0.92908562
0.92954450
0.93000821
0.93047723
0.93095029
0.93142863
0.93191142
0.93239906
0.93289198
0.93338895
0.93389072
0.93439822
0.93490970
0.93542561
0.93594723
0.93647325
0.93700370
0.93753941
0.93807954
0.93862404
0.93917384
0.93972844
0.94028744
0.94085127
0.94141994
0.94199388
0.94257171
0.94315435
0.94374187
0.94433417
0.94493176
0.94553323
0.94613999
0.94675104
0.94736691
0.94798710
0.94861314
0.94924345
0.94987808
0.95051746
0.95116170
0.95181017
0.95246397
0.95312205
0.95378492
0.95445260
0.95512502
0.95580289
0.95648437
0.95717124
0.95786231
0.95855816
0.95925819
0.95996362
0.96067322
0.96138767
0.96210683
0.96283077
0.96355950
0.96429243
0.96503072
0.96577190
0.96651914
0.96727110
0.96802790
0.96878873
0.96955440
0.97032484
0.97109997
0.97187994
0.97266398
0.97345208
0.97424563
0.97504395
0.97584701
0.97665484
0.97746671
0.97828405
0.97910404
0.97993016
0.98076102
0.98159663
0.98243633
0.98328002
0.98412912
0.98498296
0.98584162
0.98670349
0.98757079
0.98844289
0.98931895
0.99020051
0.99108595
0.99197697
0.99287115
0.99377084
0.99467526
0.99558279
0.99649665
0.99741442
0.99833617
0.99926337
1.00019447
1.00113110
1.00207170
1.00301608
1.00396610
1.00491989
1.00587932
1.00684252
1.00781050
1.00878310
1.00975962
1.01074170
1.01172674
1.01271813
1.01371263
1.01471252
1.01571631
1.01672568
1.01773802
1.01875668
1.01977839
1.02080560
1.02183658
1.02287315
1.02391265
1.02495766
1.02600641
1.02705992
1.02811895
1.02918180
1.03024923
1.03132142
1.03239637
1.03347875
1.03456301
1.03565290
1.03674744
1.03784567
1.03894855
1.04005697
1.04116915
1.04228510
1.04340748
1.04453273
1.04566251
1.04679694
1.04793601
1.04907983
1.05022717
1.05138017
1.05253689
1.05369814
1.05486309
1.05603361
1.05720887
1.05838771
1.05957107
1.06075811
1.06195083
1.06314712
1.06435006
1.06555559
1.06676466
1.06797942
1.06919783
1.07042183
1.07164935
1.07288259
1.07411935
1.07535960
1.07660557
1.07785515
1.07910922
1.08036801
1.08163015
1.08289814
1.08416948
1.08544668
1.08672722
1.08801131
1.08930115
1.09059547
1.09189334
1.09319580
1.09450284
1.09581447
1.09712951
1.09845031
1.09977452
1.10110330
1.10243666
1.10377461
1.10511725
1.10646194
1.10781240
1.10916755
1.11052716
1.11189133
1.11325898
1.11463229
1.11600783
1.11738916
1.11877494
1.12016415
1.12155917
1.12295750
1.12435912
1.12576643
1.12717842
1.12859497
1.13001352
1.13143789
1.13286809
1.13430156
1.13573712
1.13717967
1.13862548
1.14007713
1.14152952
1.14298894
1.14445289
1.14592020
1.14739190
1.14886827
1.15034784
1.15183314
1.15332310
1.15481490
1.15631378
1.15781597
1.15932133
1.16083257
1.16234560
1.16386588
1.16538930
1.16691587
1.16844832
1.16998390
1.17152539
1.17306873
1.17461924
1.17617004
1.17772957
1.17928952
1.18085665
1.18242558
1.18400172
1.18557822
1.18716336
1.18874884
1.19034169
1.19193600
1.19353785
1.19513983
1.19674774
1.19836160
1.19997702
1.20159986
1.20322424
1.20485310
1.20648791
1.20812572
1.20976801
1.21141478
1.21306467
1.21472039
1.21637907
1.21804087
1.21971000
1.22138072
1.22305575
1.22473539
1.22642088
1.22810791
1.22980094
1.23149688
1.23319867
1.23490352
1.23661282
1.23832658
1.24004479
1.24176589
1.24349143
1.24522141
1.24695584
1.24869630
1.25043803
1.25218437
1.25393497
1.25569002
1.25744950
1.25921519
1.26098194
1.26275327
1.26452888
1.26630907
1.26809353
1.26988259
1.27167444
1.27347070
1.27527123
1.27707634
1.27888752
1.28070148
1.28251820
1.28433933
1.28616487
1.28799483
1.28982920
1.29166630
1.29350781
1.29535541
1.29720573
1.29906063
1.30091636
1.30277836
1.30464629
1.30651709
1.30839211
1.31027170
1.31215551
1.31404217
1.31593322
1.31783022
1.31973005
1.32163078
1.32353938
1.32545062
1.32736800
1.32928800
1.33121239
1.33313939
1.33507077
1.33700830
1.33894842
1.34089471
1.34284019
1.34479343
1.34675105
1.34871142
1.35067778
1.35264490
1.35461837
1.35659603
1.35857459
1.36056115
1.36255006
1.36454352
1.36653950
1.36854167
1.37054801
1.37255520
1.37456859
1.37658632
1.37860655
1.38063298
1.38266189
1.38469534
1.38673463
1.38877300
1.39082116
1.39286820
1.39492316
1.39698247
1.39904231
1.40110858
1.40317708
1.40525202
1.40732745
1.40941086
1.41149494
1.41358527
1.41567780
1.41777678
1.41987621
1.42198383
1.42409189
1.42620621
1.42832290
1.43044585
1.43257116
1.43470079
1.43683472
1.43897099
1.44111354
1.44325663
1.44540780
1.44756129
1.44971728
1.45187937
1.45404376
1.45621265
1.45838583
1.46056311
1.46274286
1.46492873
1.46711706
1.46930968
1.47150863
1.47370779
1.47591063
1.47812040
1.48033446
1.48255075
1.48476926
1.48699617
1.48922324
1.49145458
1.49369039
1.49593028
1.49817652
1.50042286
1.50267556
1.50493065
1.50718979
1.50945551
1.51172108
1.51399323
1.51626753
1.51854587
1.52082869
1.52311576
1.52540708
1.52770459
1.53000230
1.53230425
1.53461046
1.53692091
1.53923562
1.54155242
1.54387345
1.54620090
1.54853042
1.55086419
1.55320024
1.55554248
1.55788700
1.56023773
1.56259050
1.56494773
1.56730677
1.56967246
1.57203995
1.57441411
1.57679006
1.57917046
1.58155286
1.58394171
1.58633456
1.58872537
1.59112666
1.59353016
1.59593563
1.59834756
1.60076371
1.60318181
1.60560413
1.60802862
1.61045935
1.61289202
1.61533118
1.61777249
1.62021548
1.62266519
1.62511888
1.62757677
1.63003679
1.63250077
1.63496918
1.63744178
1.63991835
1.64239470
1.64487989
1.64736694
1.64985584
1.65235336
1.65485063
1.65735232
1.65986006
1.66236988
1.66488175
1.66739992
1.66992227
1.67244643
1.67497714
1.67750965
1.68004418
1.68258503
1.68512790
1.68767709
1.69023046
1.69278343
1.69534513
1.69790642
1.70047429
1.70304149
1.70561743
1.70819293
1.71077745
1.71336125
1.71595165
1.71854376
1.72114223
1.72374044
1.72634500
1.72895125
1.73156657
1.73417865
1.73679981
1.73942264
1.74204985
1.74467849
1.74731126
1.74995089
1.75259193
1.75523960
