corrn_curve_quadratic
1.99251071
1.99110599
1.98969956
1.98829528
1.98688928
1.98548554
1.98408190
1.98267858
1.98127538
1.97987239
1.97847165
1.97706920
1.97566889
1.97426676
1.97286688
1.97146721
1.97006776
1.96866853
1.96727144
1.96587263
1.96447607
1.96307769
1.96168348
1.96028746
1.95889176
1.95749616
1.95610079
1.95470765
1.95331280
1.95192009
1.95052759
1.94913531
1.94774324
1.94635139
1.94496167
1.94357024
1.94218105
1.94079207
1.93940128
1.93801263
1.93662429
1.93523809
1.93385008
1.93246238
1.93107681
1.92969146
1.92830632
1.92691937
1.92553667
1.92415217
1.92276788
1.92138582
1.92000195
1.91862021
1.91723879
1.91585758
1.91447648
1.91309569
1.91171501
1.91033465
1.90895843
1.90757838
1.90620057
1.90482297
1.90344366
1.90206849
1.90069152
1.89931678
1.89794023
1.89656581
1.89519170
1.89381779
1.89244400
1.89107052
1.88969725
1.88832611
1.88695316
1.88558253
1.88421201
1.88284171
1.88146970
1.88010172
1.87873214
1.87736268
1.87599342
1.87462638
1.87326146
1.87189283
1.87052642
1.86916022
1.86779413
1.86643026
1.86506468
1.86370123
1.86233808
1.86097404
1.85961121
1.85824959
1.85688627
1.85552607
1.85416508
1.85280529
1.85144372
1.85008435
1.84872509
1.84736514
1.84600740
1.84464977
1.84329344
1.84193623
1.84057832
1.83922252
1.83786703
1.83651264
1.83515746
1.83380249
1.83244873
1.83109527
1.82974283
1.82839068
1.82703875
1.82568502
1.82433450
1.82298319
1.82163298
1.82028408
1.81893428
1.81758579
1.81623741
1.81488933
1.81354136
1.81219459
1.81084704
1.80949978
1.80815364
1.80680869
1.80546296
1.80411842
1.80277409
1.80143097
1.80008695
1.79874424
1.79740362
1.79606132
1.79472011
1.79337922
1.79203843
1.79069794
1.78935756
1.78801838
1.78667950
1.78534073
1.78400216
1.78266479
1.78132862
1.77999256
1.77865580
1.77731926
1.77598390
1.77464876
1.77331570
1.77198096
1.77064732
1.76931398
1.76798075
1.76664970
1.76531698
1.76398535
1.76265392
1.76132280
1.75999367
1.75866384
1.75733422
1.75600679
1.75467757
1.75334956
1.75202174
1.75069502
1.74936860
1.74804139
1.74671627
1.74539036
1.74406574
1.74274221
1.74141691
1.74009478
1.73877097
1.73744727
1.73612574
1.73480343
1.73348132
1.73216139
1.73083968
1.72952105
1.72819975
1.72688161
1.72556259
1.72424486
1.72292535
1.72160891
1.72029069
1.71897465
1.71765793
1.71634328
1.71502686
1.71371261
1.71239659
1.71108373
1.70976910
1.70845664
1.70714241
1.70583133
1.70451938
1.70320673
1.70189626
1.70058491
1.69927484
1.69796585
1.69665520
1.69534661
1.69403921
1.69273004
1.69142304
1.69011624
1.68880777
1.68750235
1.68619614
1.68489014
1.68358522
1.68228060
1.68097716
1.67967195
1.67836881
1.67706597
1.67576421
1.67446078
1.67315942
1.67185825
1.67055729
1.66925564
1.66795605
1.66665667
1.66535748
1.66405947
1.66276067
1.66146208
1.66016466
1.65886744
1.65757131
1.65627546
1.65497972
1.65368427
1.65238893
1.65109486
1.64979903
1.64850525
1.64721265
1.64591927
1.64462717
1.64333516
1.64204433
1.64075272
1.63946228
1.63817194
1.63688190
1.63559205
1.63430338
1.63301393
1.63172555
1.63043845
1.62915047
1.62786375
1.62657714
1.62529082
1.62400460
1.62272053
1.62143567
1.62015102
1.61886656
1.61758327
1.61630017
1.61501630
1.61373360
1.61245304
1.61117171
1.60989047
1.60860952
1.60732878
1.60604812
1.60477059
1.60349043
1.60221231
1.60093351
1.59965481
1.59837922
1.59710188
1.59582483
1.59454788
1.59327308
1.59199749
1.59072210
1.58944874
1.58817471
1.58689990
1.58562811
1.58435466
1.58308228
1.58181116
1.58053917
1.57926746
1.57799683
1.57672639
1.57545624
1.57418716
1.57291730
1.57164957
1.57038107
1.56911180
1.56784562
1.56657770
1.56531181
1.56404524
1.56277984
1.56151366
1.56024855
1.55898469
1.55771996
1.55645649
1.55519214
1.55392993
1.55266704
1.55140521
1.55014453
1.54888212
1.54762183
1.54636077
1.54510087
1.54384116
1.54258261
1.54132415
1.54006405
1.53880704
1.53754829
1.53629157
1.53503600
1.53377783
1.53252264
1.53126765
1.53001102
1.52875737
1.52750295
1.52624786
1.52499478
1.52374277
1.52248825
1.52123671
1.51998527
1.51873412
1.51748219
1.51623142
1.51498170
1.51373228
1.51248111
1.51123293
1.50998398
1.50873627
1.50748866
1.50623932
1.50499314
1.50374610
1.50250021
1.50125451
1.50000997
1.49876369
1.49751856
1.49627458
1.49503069
1.49378805
1.49254464
1.49130228
1.49006021
1.48881823
1.48757750
1.48633494
1.48509458
1.48385432
1.48261424
1.48137446
1.48013572
1.47889717
1.47765881
1.47642064
1.47518362
1.47394678
1.47271013
1.47147358
1.47023731
1.46900218
1.46776811
1.46653432
1.46529966
1.46406529
1.46283196
1.46159892
1.46036597
1.45913321
1.45790160
1.45667027
1.45543998
1.45420893
1.45297902
1.45174834
1.45051880
1.44928945
1.44806211
1.44683409
1.44560530
1.44437756
1.44315010
1.44192464
1.44069851
1.43947152
1.43824576
1.43702200
1.43579652
1.43457218
1.43334803
1.43212501
1.43090219
1.42967869
1.42845709
1.42723482
1.42601274
1.42479274
1.42357189
1.42235037
1.42113188
1.41991158
1.41869157
1.41747355
1.41625485
1.41503815
1.41381973
1.41260160
1.41138545
1.41016854
1.40895372
1.40773718
1.40652272
1.40530750
1.40409342
1.40287856
1.40166580
1.40045217
1.39923977
1.39802661
1.39681544
1.39560264
1.39439184
1.39318036
1.39196992
1.39075882
1.38954970
1.38834171
1.38713106
1.38592344
1.38471410
1.38350685
1.38230072
1.38109194
1.37988619
1.37867872
1.37747324
1.37626897
1.37506301
1.37385807
1.37265436
1.37144979
1.37024645
1.36904319
1.36784106
1.36663827
1.36543651
1.36423493
1.36303258
1.36183232
1.36063223
1.35943232
1.35823260
1.35703212
1.35583371
1.35463548
1.35343828
1.35224041
1.35104178
1.34984513
1.34864875
1.34745247
1.34625730
1.34506147
1.34386573
1.34267111
1.34147676
1.34028345
1.33908938
1.33789642
1.33670365
1.33551201
1.33431960
1.33312822
1.33193712
1.33074620
1.32955630
1.32836480
1.32717536
1.32598601
1.32479693
1.32360794
1.32242017
1.32123342
1.32004591
1.31885858
1.31767237
1.31648634
1.31529965
1.31411483
1.31292934
1.31174403
1.31055984
1.30937583
1.30819201
1.30700836
1.30582667
1.30464432
1.30346205
1.30228006
1.30109909
1.29991746
1.29873685
1.29755736
1.29637720
1.29519806
1.29401817
1.29283939
1.29166267
1.29048425
1.28930601
1.28812889
1.28695278
1.28577601
1.28460036
1.28342395
1.28224950
1.28107438
1.27989944
1.27872646
1.27755178
1.27637831
1.27520586
1.27403266
1.27286066
1.27168958
1.27051700
1.26934544
1.26817593
1.26700472
1.26583556
1.26466565
1.26349582
1.26232719
1.26115874
1.25999131
1.25882321
1.25765623
1.25648839
1.25532176
1.25415615
1.25298894
1.25182461
1.25065859
1.24949461
1.24832905
1.24716626
1.24600198
1.24483871
1.24367645
1.24251353
1.24135173
1.24018916
1.23902863
1.23786642
1.23670616
1.23554699
1.23438624
1.23322660
1.23206703
1.23090867
1.22975038
1.22859135
1.22743435
1.22627761
1.22512003
1.22396356
1.22280818
1.22165113
1.22049611
1.21934126
1.21818659
1.21703117
1.21587768
1.21472446
1.21357133
1.21241753
1.21126577
1.21011408
1.20896257
1.20781133
1.20665924
1.20550835
1.20435846
1.20320875
1.20205921
1.20090893
1.19976066
1.19861165
1.19746373
1.19631692
1.19516935
1.19402279
1.19287557
1.19172853
1.19058258
1.18943681
1.18829205
1.18714745
1.18600312
1.18485888
1.18371573
1.18257192
1.18142912
1.18028649
1.17914403
1.17800267
1.17686066
1.17571955
1.17457871
1.17343804
1.17229847
1.17115815
1.17001892
1.16887977
1.16774089
1.16660310
1.16546632
1.16432878
1.16319151
1.16205432
1.16091739
1.15978147
1.15864572
1.15751023
1.15637574
1.15524142
1.15410636
1.15297238
1.15183858
1.15070496
1.14957334
1.14844088
1.14730868
1.14617666
1.14504655
1.14391487
1.14278419
1.14165286
1.14052435
1.13939428
1.13826428
1.13713546
1.13600765
1.13487908
1.13375160
1.13262430
1.13149716
1.13037020
1.12924432
1.12811770
1.12699216
1.12586771
1.12474252
1.12361749
1.12249346
1.12136969
1.12024692
1.11912349
1.11800106
1.11687797
1.11575588
1.11463487
1.11351229
1.11239254
1.11127113
1.11015171
1.10903064
1.10791247
1.10679265
1.10567392
1.10455535
1.10343787
1.10231872
1.10120240
1.10008451
1.09896862
1.09785280
1.09673542
1.09562085
1.09450472
1.09339049
1.09227643
1.09116081
1.09004800
1.08893353
1.08782106
1.08670875
1.08559489
1.08448374
1.08337194
1.08226031
1.08114975
1.08003937
1.07892824
1.07781820
1.07670914
1.07560033
1.07448988
1.07338223
1.07227384
1.07116662
1.07005766
1.06895159
1.06784488
1.06673823
1.06563267
1.06452545
1.06342113
1.06231607
1.06121117
1.06010735
1.05900370
1.05789840
1.05679599
1.05569275
1.05459067
1.05348876
1.05238692
1.05128535
1.05018385
1.04908351
1.04798143
1.04688143
1.04578241
1.04468265
1.04358396
1.04248462
1.04138627
1.04028898
1.03919096
1.03809391
1.03699631
1.03589960
1.03480315
1.03370777
1.03261164
1.03151650
1.03042161
1.02932689
1.02823406
1.02713958
1.02604626
1.02495301
1.02386002
1.02276711
1.02167526
1.02058277
1.01949126
1.01840162
1.01731053
1.01622032
1.01512956
1.01403977
1.01295006
1.01186241
1.01077311
1.00968489
1.00859674
1.00750884
1.00642192
1.00533525
1.00424776
1.00316142
1.00207606
1.00099005
0.99990502
0.99882105
0.99773634
0.99665090
0.99556742
0.99448411
0.99340096
0.99231797
0.99123605
0.99015339
0.98907270
0.98799037
0.98690901
0.98582880
0.98474786
0.98366699
0.98258818
0.98150853
0.98042995
0.97935073
0.97827337
0.97719447
0.97611744
0.97503967
0.97396207
0.97288553
0.97180915
0.97073383
0.96965688
0.96858278
0.96750705
0.96643328
0.96535958
0.96428434
0.96321195
0.96213784
0.96106488
0.95999208
0.95892024
0.95784857
0.95677626
0.95570581
0.95463373
0.95356370
0.95249373
0.95142303
0.95035429
0.94928570
0.94821549
0.94714723
0.94608002
0.94501119
0.94394421
0.94287749
0.94180914
0.94074363
0.93967730
0.93861212
0.93754522
0.93648035
0.93541645
0.93435182
0.93328655
0.93222313
0.93115988
0.93009687
0.92903483
0.92797116
0.92690944
0.92584788
0.92478647
0.92372523
0.92266495
0.92160403
0.92054327
0.91948356
0.91842401
0.91736543
0.91630620
0.91524793
0.91418991
0.91313196
0.91207506
0.91101752
0.90996094
0.90890452
0.90784835
0.90679314
0.90573631
0.90468142
0.90362668
0.90257300
0.90151858
0.90046521
0.89941192
0.89835887
0.89730598
0.89625325
0.89520059
0.89414906
0.89309769
0.89204639
0.89099535
0.88994437
0.88889443
0.88784563
0.88679601
0.88574656
0.88469726
0.88364900
0.88260099
0.88155217
0.88050607
0.87945845
0.87841187
0.87736456
0.87631830
0.87527308
0.87422793
0.87318214
0.87213739
0.87109360
0.87004917
0.86900481
0.86796069
0.86691841
0.86587541
0.86483265
0.86379084
0.86274831
0.86170682
0.86066637
0.85962519
0.85858337
0.85754419
0.85650357
0.85546382
0.85442519
0.85338584
0.85234832
0.85130928
0.85027040
0.84923343
0.84819566
0.84715980
0.84612243
0.84508689
0.84404983
0.84301371
0.84197952
0.84094381
0.83990905
0.83887444
0.83784087
0.83680658
0.83577332
0.83474022
0.83370816
0.83267625
0.83164273
0.83061193
0.82957961
0.82854920
0.82751719
0.82648788
0.82545785
0.82442719
0.82339835
0.82236975
0.82133946
0.82031197
0.81928296
0.81825489
0.81722786
0.81620011
0.81517338
0.81414682
0.81312128
0.81209415
0.81106892
0.81004385
0.80901806
0.80799330
0.80696948
0.80594590
0.80492161
0.80389825
0.80287514
0.80185297
0.80083095
0.79980743
0.79878572
0.79776425
0.79674373
0.79572335
0.79470314
0.79368141
0.79266150
0.79164254
0.79062302
0.78960436
0.78858594
0.78756767
0.78655043
0.78553247
0.78451545
0.78349693
0.78248030
0.78146462
0.78044830
0.77943292
0.77841690
0.77740183
0.77638778
0.77537310
0.77435848
0.77334489
0.77233146
0.77131826
0.77030513
0.76929302
0.76828019
0.76727005
0.76625840
0.76524690
0.76423555
0.76322523
0.76221411
0.76120409
0.76019422
0.75918530
0.75817574
0.75716798
0.75615959
0.75515127
0.75414310
0.75313517
0.75212818
0.75112220
0.75011551
0.74910897
0.74810267
0.74709808
0.74609286
0.74508702
0.74408202
0.74307899
0.74207438
0.74107079
0.74006648
0.73906484
0.73806170
0.73705863
0.73605753
0.73505562
0.73405309
0.73305322
0.73205177
0.73105056
0.73005114
0.72905101
0.72805102
0.72705215
0.72605247
0.72505467
0.72405615
0.72305693
0.72206036
0.72106230
0.72006611
0.71906835
0.71807247
0.71707579
0.71608107
0.71508478
0.71409027
0.71309428
0.71210008
0.71110525
0.71011220
0.70911759
0.70812485
0.70713148
0.70613904
0.70514588
0.70415374
0.70316175
0.70217076
0.70117993
0.70018839
0.69919785
0.69820833
0.69721724
0.69622793
0.69523799
0.69424906
0.69326106
0.69227157
0.69128387
0.69029640
0.68930813
0.68832182
0.68733472
0.68634862
0.68536189
0.68437609
0.68339043
0.68240579
0.68141957
0.68043522
0.67945102
0.67846697
0.67748221
0.67649931
0.67551648
0.67453388
0.67355143
0.67256826
0.67158602
0.67060487
0.66962378
0.66864293
0.66766214
0.66668158
0.66570194
0.66472082
0.66374147
0.66276228
0.66178323
0.66080519
0.65982643
0.65884868
0.65787108
0.65689362
0.65591632
0.65494001
0.65396385
0.65298699
0.65201189
0.65103618
0.65006061
0.64908596
0.64811068
0.64713641
0.64616220
0.64518898
0.64421515
0.64324223
0.64226869
0.64129607
0.64032445
0.63935297
0.63838164
0.63740960
0.63643865
0.63546776
0.63449778
0.63352718
0.63255843
0.63158898
0.63061967
0.62965042
0.62868141
0.62771253
0.62674543
0.62577770
0.62481012
0.62384260
0.62287693
0.62190979
0.62094356
0.61997756
0.61901247
0.61804753
0.61708188
0.61611808
0.61515357
0.61418835
0.61322422
0.61226177
0.61129869
0.61033491
0.60937297
0.60841033
0.60744945
0.60648710
0.60552489
0.60456529
0.60360338
0.60264407
0.60168329
0.60072257
0.59976370
0.59880420
0.59784561
0.59688632
0.59592887
0.59496995
0.59401279
0.59305493
0.59209805
0.59114047
0.59018474
0.58922745
0.58827200
0.58731584
0.58636059
0.58540558
0.58445070
0.58349673
0.58254214
0.58158846
0.58063416
0.57968161
0.57872844
0.57777534
0.57682322
0.57587048
0.57491865
0.57396780
0.57301550
0.57206494
0.57111453
0.57016341
0.56921413
0.56826414
0.56731506
0.56636536
0.56541665
0.56446808
0.56351881
0.56257128
0.56162399
0.56067675
0.55972974
0.55878202
0.55783605
0.55688947
0.55594379
0.55499824
0.55405209
0.55310683
0.55216256
0.55121843
0.55027444
0.54933060
0.54838613
0.54744257
0.54649991
0.54555672
0.54461434
0.54367303
0.54273102
0.54178915
0.54084818
0.53990743
0.53896675
0.53802628
0.53708596
0.53614654
0.53520651
0.53426737
0.53332837
0.53238959
0.53145172
0.53051314
0.52957555
0.52863810
0.52770079
0.52676370
0.52582742
0.52489062
0.52395463
0.52301886
0.52208323
0.52114774
0.52021240
0.51927878
0.51834456
0.51741047
0.51647644
0.51554264
0.51460981
0.51367788
0.51274525
0.51181284
0.51088049
0.50994828
0.50901789
0.50808688
0.50715509
0.50622428
0.50529360
0.50436474
0.50343519
0.50250493
0.50157649
0.50064736
0.49971919
0.49879034
0.49786321
0.49693463
0.49600702
0.49508115
0.49415382
0.49322655
0.49230118
0.49137502
0.49044984
0.48952405
0.48859831
0.48767438
0.48674984
0.48582618
0.48490184
0.48397763
0.48305439
0.48213129
0.48120917
0.48028552
0.47936450
0.47844196
0.47752039
0.47659887
0.47567841
0.47475642
0.47383699
0.47291611
0.47199620
0.47107635
0.47015746
0.46923714
0.46831936
0.46740098
0.46648182
0.46556445
0.46464640
0.46372940
0.46281245
0.46189481
0.46097897
0.46006160
0.45914604
0.45823061
0.45731449
0.45640008
0.45548589
0.45457101
0.45365627
0.45274241
0.45182878
0.45091528
0.45000183
0.44908943
0.44817709
0.44726414
0.44635207
0.44544097
0.44452918
0.44361760
0.44270691
0.44179636
0.44088594
0.43997648
0.43906634
0.43815633
0.43724729
0.43633838
0.43542961
0.43452180
0.43361413
0.43270569
0.43179746
0.43089020
0.42998382
0.42907683
0.42817080
0.42726483
0.42635899
0.42545338
0.42454781
0.42364321
0.42273800
0.42183367
0.42092947
0.42002549
0.41912239
0.41821860
0.41731578
0.41641308
0.41551053
0.41460811
0.41370582
0.41280441
0.41190240
0.41100134
0.41010042
0.40920120
0.40830055
0.40739996
0.40650040
0.40560090
0.40470161
0.40380238
0.40290336
0.40200605
0.40110804
0.40021025
0.39931252
0.39841492
0.39751827
0.39662176
0.39572539
0.39482833
0.39393222
0.39303789
0.39214206
0.39124718
0.39035161
0.38945774
0.38856326
0.38766974
0.38677627
0.38588301
0.38498907
0.38409683
0.38320397
0.38231199
0.38142015
0.38052852
0.37963612
0.37874550
0.37785427
0.37696465
0.37607369
0.37518278
0.37429364
0.37340382
0.37251576
0.37162621
0.37073679
0.36984905
0.36895998
0.36807251
0.36718444
0.36629806
0.36541026
0.36452422
0.36363668
0.36275083
0.36186438
0.36097961
0.36009334
0.35920892
0.35832455
0.35743868
0.35655539
0.35567069
0.35478685
0.35390396
0.35301957
0.35213694
0.35125364
0.35037209
0.34948986
0.34860777
0.34772581
0.34684552
0.34596301
0.34508307
0.34420237
0.34332189
0.34244153
0.34156205
0.34068350
0.33980354
0.33892453
0.33804638
0.33716837
0.33628894
0.33541119
0.33453438
0.33365689
0.33277880
0.33190255
0.33102627
0.33015012
0.32927492
0.32839903
0.32752246
0.32664765
0.32577289
0.32489834
0.32402392
0.32315037
0.32227621
0.32140300
0.32052984
0.31965608
0.31878318
0.31791049
0.31703866
0.31616705
0.31529548
0.31442404
0.31355274
0.31268165
0.31181142
0.31094050
0.31007053
0.30920069
0.30833098
0.30746221
0.30659276
0.30572425
0.30485587
0.30398754
0.30311942
0.30225224
0.30138511
0.30051819
0.29965060
0.29878386
0.29791733
0.29705166
0.29618539
0.29532078
0.29445550
0.29359043
0.29272541
0.29186051
0.29099583
0.29013281
0.28926911
0.28840555
0.28754211
0.28667880
0.28581724
0.28495419
0.28409208
0.28323009
0.28236896
0.28150724
0.28064645
0.27978571
0.27892517
0.27806477
0.27720522
0.27634508
0.27548498
0.27462663
0.27376767
0.27290877
0.27205080
0.27119223
0.27033372
0.26947693
0.26861876
0.26776223
0.26690503
0.26604796
0.26519263
0.26433582
0.26348066
0.26262491
0.26177008
0.26091459
0.26006002
0.25920551
0.25835200
0.25749702
0.25664369
0.25578976
0.25493749
0.25408382
0.25323181
0.25237840
0.25152664
0.25067428
0.24982358
0.24897220
0.24812095
0.24726983
0.24641892
0.24556885
0.24471963
0.24386910
0.24301942
0.24217058
0.24132115
0.24047265
0.23962428
0.23877603
0.23792783
0.23708064
0.23623198
0.23538576
0.23453895
