corrn_curve_quartic
30.15905907
30.08010685
30.00118271
29.92250341
29.84385233
29.76545115
29.68718023
29.60905081
29.53105143
29.45318764
29.37557180
29.29798426
29.22063842
29.14331541
29.06623909
28.98929726
28.91248980
28.83581659
28.75938288
28.68297763
28.60681680
28.53067903
28.45488969
28.37912318
28.30349522
28.22799470
28.15262699
28.07750116
28.00240399
27.92754262
27.85281320
27.77821564
27.70374979
27.62941556
27.55531526
27.48124371
27.40741087
27.33370879
27.26003027
27.18658420
27.11327389
27.04019504
26.96713970
26.89421973
26.82153035
26.74897042
26.67653984
26.60413313
26.53206626
26.46002303
26.38810867
26.31642770
26.24477057
26.17334100
26.10204470
26.03087632
25.95983056
25.88891769
25.81812724
25.74746942
25.67713968
25.60673094
25.53655189
25.46649950
25.39647655
25.32677929
25.25710613
25.18766080
25.11823972
25.04904080
24.97997243
24.91102941
24.84220660
24.77351396
24.70494633
24.63659877
24.56827565
24.50018202
24.43220760
24.36435727
24.29653661
24.22902843
24.16155464
24.09419953
24.02696794
23.95995812
23.89316450
23.82630226
23.75966090
23.69314213
23.62674097
23.56055947
23.49440763
23.42847000
23.36265889
23.29691623
23.23134339
23.16593999
23.10056642
23.03545311
22.97041261
22.90554057
22.84069363
22.77606250
22.71154681
22.64710858
22.58288510
22.51877658
22.45483949
22.39096993
22.32717748
22.26359348
22.20013313
22.13683362
22.07360608
22.01049716
21.94755318
21.88473206
21.82206605
21.75952249
21.69709666
21.63469645
21.57255179
21.51047853
21.44856369
21.38681607
21.32513504
21.26362080
21.20221851
21.14093714
21.07976751
21.01875916
20.95782166
20.89700460
20.83634373
20.77584320
20.71541324
20.65514322
20.59498825
20.53499265
20.47506292
20.41529663
20.35572873
20.29619103
20.23680716
20.17754165
20.11838557
20.05934760
20.00041887
19.94164725
19.88299322
19.82444795
19.76601570
19.70773961
19.64961934
19.59160710
19.53366841
19.47584203
19.41817067
19.36061124
19.30324470
19.24590861
19.18872236
19.13165169
19.07468799
19.01791993
18.96118239
18.90459362
18.84811547
18.79175203
18.73557431
18.67946897
18.62347366
18.56767148
18.51189572
18.45627110
18.40075590
18.34538718
18.29013163
18.23494391
18.17994315
18.12501001
18.07023046
18.01559597
17.96098814
17.90661052
17.85226357
17.79802048
17.74396600
17.68997859
17.63609864
17.58240633
17.52874078
17.47529834
17.42184670
17.36862147
17.31545884
17.26244624
17.20946057
17.15669581
17.10395793
17.05140473
16.99892172
16.94661877
16.89434275
16.84225019
16.79018467
16.73834096
16.68652423
16.63488975
16.58328236
16.53189526
16.48056983
16.42931390
16.37823875
16.32722521
16.27635743
16.22562742
16.17492840
16.12440490
16.07402230
16.02366688
15.97348985
15.92341539
15.87337200
15.82353996
15.77377259
15.72410736
15.67457769
15.62515352
15.57586812
15.52661008
15.47752384
15.42854251
15.37969539
15.33087936
15.28223398
15.23368925
15.18524506
15.13686853
15.08866152
15.04055458
14.99254761
14.94467663
14.89686922
14.84916147
14.80158916
14.75411616
14.70677451
14.65953540
14.61239156
14.56535003
14.51840359
14.47159460
14.42481331
14.37819739
14.33171471
14.28529479
14.23901125
14.19282183
14.14676478
14.10077024
14.05490771
14.00913879
13.96347031
13.91789869
13.87245824
13.82707997
13.78182909
13.73671213
13.69165371
13.64672885
13.60189645
13.55716320
13.51252222
13.46804431
13.42362789
13.37930668
13.33508058
13.29098295
13.24698008
13.20303856
13.15922498
13.11557222
13.07198042
13.02847942
12.98507575
12.94176598
12.89854674
12.85551946
12.81249061
12.76961720
12.72680765
12.68408801
12.64155862
12.59905713
12.55665159
12.51433544
12.47217604
12.43007674
12.38806962
12.34621519
12.30442383
12.26269245
12.22114476
12.17962825
12.13823158
12.09696075
12.05574633
12.01462605
11.97362482
11.93271426
11.89189739
11.85119893
11.81055972
11.77007263
11.72964458
11.68927567
11.64908890
11.60893029
11.56891943
11.52897037
11.48914107
11.44937044
11.40971620
11.37018411
11.33070746
11.29135260
11.25205313
11.21290209
11.17381224
11.13483739
11.09598022
11.05715132
11.01846955
10.97984569
10.94133885
10.90291930
10.86461631
10.82639734
10.78820969
10.75019658
10.71221179
10.67436886
10.63664125
10.59891593
10.56136064
10.52389126
10.48645317
10.44918410
10.41197195
10.37481967
10.33780698
10.30090502
10.26400878
10.22727970
10.19063258
10.15407296
10.11756988
10.08117939
10.04489842
10.00870440
9.97253887
9.93653796
9.90059315
9.86476247
9.82901259
9.79329123
9.75773844
9.72223870
9.68684941
9.65154307
9.61634672
9.58117882
9.54612073
9.51117215
9.47630322
9.44154605
9.40684413
9.37224829
9.33773694
9.30330467
9.26898320
9.23468759
9.20052897
9.16644894
9.13245004
9.09853479
9.06472400
9.03099393
8.99734448
8.96377555
8.93031295
8.89693056
8.86362829
8.83040347
8.79726115
8.76422424
8.73128990
8.69843752
8.66563650
8.63291736
8.60030019
8.56776456
8.53530534
8.50292495
8.47064833
8.43845274
8.40635797
8.37431657
8.34237819
8.31049311
8.27871074
8.24700621
8.21542605
8.18390127
8.15242950
8.12105711
8.08976440
8.05859490
8.02748046
7.99641633
7.96545554
7.93461701
7.90380692
7.87309719
7.84246373
7.81193019
7.78147262
7.75106962
7.72078496
7.69055469
7.66040001
7.63036763
7.60038473
7.57045605
7.54067230
7.51091463
7.48123419
7.45167238
7.42216436
7.39277445
7.36341295
7.33412808
7.30496069
7.27584451
7.24684758
7.21787907
7.18902939
7.16023066
7.13152781
7.10287584
7.07434175
7.04585614
7.01746792
6.98913032
6.96090746
6.93271523
6.90463735
6.87661203
6.84867868
6.82079782
6.79303039
6.76535646
6.73768924
6.71015860
6.68265635
6.65526857
6.62797345
6.60068531
6.57353233
6.54640773
6.51939437
6.49247493
6.46558381
6.43878221
6.41207408
6.38541315
6.35884538
6.33234555
6.30593639
6.27957835
6.25330862
6.22710844
6.20095720
6.17491638
6.14894473
6.12304216
6.09720857
6.07142364
6.04574802
6.02014101
5.99462060
5.96915049
5.94372873
5.91841320
5.89316771
5.86798821
5.84289635
5.81785443
5.79287824
5.76798927
5.74316967
5.71843493
5.69374788
5.66914736
5.64461380
5.62016639
5.59576640
5.57145036
5.54720273
5.52302150
5.49892370
5.47485597
5.45089231
5.42699271
5.40316085
5.37939286
5.35571114
5.33211169
5.30855892
5.28507146
5.26166772
5.23832901
5.21503867
5.19184631
5.16870215
5.14562266
5.12262594
5.09969363
5.07682561
5.05402181
5.03131633
5.00865854
4.98606281
4.96353263
4.94108215
4.91867918
4.89635563
4.87411305
4.85191775
4.82980138
4.80773046
4.78573995
4.76384701
4.74198187
4.72017932
4.69845654
4.67681156
4.65521329
4.63369428
4.61222018
4.59084035
4.56950697
4.54823529
4.52705724
4.50590693
4.48483650
4.46384236
4.44289265
4.42202229
4.40122608
4.38046088
4.35977132
4.33917523
4.31860678
4.29813143
4.27770001
4.25732716
4.23703224
4.21679724
4.19663657
4.17652114
4.15648137
4.13648356
4.11656274
4.09671550
4.07689739
4.05718420
4.03749848
4.01790306
3.99833669
3.97887269
3.95943923
3.94007821
3.92078945
3.90154504
3.88237416
3.86324601
3.84420635
3.82519407
3.80626841
3.78741543
3.76859128
3.74983963
3.73114380
3.71252163
3.69395504
3.67543061
3.65699273
3.63861304
3.62027383
3.60200591
3.58380905
3.56563939
3.54755513
3.52952699
3.51155489
3.49362438
3.47577704
3.45798684
3.44025082
3.42255758
3.40494815
3.38739258
3.36989221
3.35244835
3.33504414
3.31771028
3.30044375
3.28323191
3.26607467
3.24895820
3.23192366
3.21492972
3.19800365
3.18114526
3.16432725
3.14757531
3.13086504
3.11420852
3.09761903
3.08108305
3.06461242
3.04819506
3.03183219
3.01552109
2.99927610
2.98307220
2.96693284
2.95084616
2.93481206
2.91884336
2.90291544
2.88705010
2.87123821
2.85547841
2.83978329
2.82412738
2.80853590
2.79299485
2.77750664
2.76208241
2.74672070
2.73139780
2.71612732
2.70090670
2.68573833
2.67063189
2.65557622
2.64057246
2.62563018
2.61073835
2.59588487
2.58109372
2.56635278
2.55166195
2.53704485
2.52246455
2.50793523
2.49345562
2.47904784
2.46466732
2.45034670
2.43606499
2.42186601
2.40769418
2.39357026
2.37950788
2.36550454
2.35153853
2.33763246
2.32377490
2.30996575
2.29620493
2.28250350
2.26883907
2.25523379
2.24168745
2.22817791
2.21471614
2.20131187
2.18795621
2.17465775
2.16139689
2.14819297
2.13502657
2.12191688
2.10886481
2.09583943
2.08289153
2.06996919
2.05711446
2.04428527
2.03153377
2.01880774
2.00613828
1.99351493
1.98094784
1.96840620
1.95594000
1.94350017
1.93112625
1.91879679
1.90649367
1.89426499
1.88206255
1.86992419
1.85783083
1.84576369
1.83376998
1.82180142
1.80989708
1.79803728
1.78620358
1.77444133
1.76271469
1.75103227
1.73940349
1.72781871
1.71626838
1.70477136
1.69332652
1.68192623
1.67055084
1.65924591
1.64797504
1.63675758
1.62556401
1.61444101
1.60335274
1.59230647
1.58131203
1.57034230
1.55944215
1.54857554
1.53775136
1.52697838
1.51624762
1.50554145
1.49490368
1.48429825
1.47374426
1.46323202
1.45276059
1.44233162
1.43194332
1.42160581
1.41129181
1.40103688
1.39083065
1.38065704
1.37053276
1.36044185
1.35039920
1.34040547
1.33044408
1.32053057
1.31065096
1.30081818
1.29102646
1.28128291
1.27157138
1.26190702
1.25228332
1.24269939
1.23317011
1.22366466
1.21420734
1.20478866
1.19541008
1.18606998
1.17677673
1.16751565
1.15830043
1.14913848
1.14000164
1.13090954
1.12185005
1.11283583
1.10385931
1.09493665
1.08603745
1.07718378
1.06836744
1.05958983
1.05085663
1.04216193
1.03349705
1.02487770
1.01630229
1.00775794
0.99925730
0.99080094
0.98237473
0.97397867
0.96563355
0.95732531
0.94905390
0.94081923
0.93262802
0.92446658
0.91635512
0.90826658
0.90022040
0.89221777
0.88424461
0.87630688
0.86841891
0.86055957
0.85274253
0.84495532
0.83721598
0.82949993
0.82183147
0.81419198
0.80658776
0.79902505
0.79149741
0.78401100
0.77654706
0.76913654
0.76174839
0.75440718
0.74709986
0.73981548
0.73258366
0.72537347
0.71820412
0.71106891
0.70397308
0.69691119
0.68987790
0.68288951
0.67592318
0.66900267
0.66211508
0.65525521
0.64844014
0.64165829
0.63489833
0.62818278
0.62150581
0.61485062
0.60823884
0.60166034
0.59510356
0.58859580
0.58211453
0.57567163
0.56924978
0.56287148
0.55653011
0.55021550
0.54392818
0.53768278
0.53146919
0.52528787
0.51914284
0.51301912
0.50693715
0.50088658
0.49486734
0.48887934
0.48292702
0.47700128
0.47110657
0.46524773
0.45941972
0.45362684
0.44786025
0.44212859
0.43642791
0.43075717
0.42512151
0.41951184
0.41393657
0.40839138
0.40287666
0.39739601
0.39193602
0.38651497
0.38112358
0.37576629
0.37043399
0.36513560
0.35986608
0.35462626
0.34941563
0.34423410
0.33908118
0.33396196
0.32887159
0.32380956
0.31877665
0.31377196
0.30880001
0.30386107
0.29894590
0.29405902
0.28920037
0.28437394
0.27957594
0.27480148
0.27006654
0.26535179
0.26066872
0.25600936
0.25138151
0.24678501
0.24221550
0.23766984
0.23315525
0.22867123
0.22421086
0.21977713
0.21537071
0.21099818
0.20664868
0.20232624
0.19803367
0.19376399
0.18952436
0.18531465
0.18112764
0.17696368
0.17283568
0.16872742
0.16464792
0.16059807
0.15657060
0.15257529
0.14859919
0.14464869
0.14073036
0.13683378
0.13296911
0.12912344
0.12530913
0.12151376
0.11774634
0.11401021
0.11029290
0.10660322
0.10293824
0.09930098
0.09568518
0.09209691
0.08853303
0.08499646
0.08148410
0.07798994
0.07452845
0.07108537
0.06767205
0.06427679
0.06091363
0.05757128
0.05424999
0.05095760
0.04768891
0.04443777
0.04121823
0.03801670
0.03484078
0.03169062
0.02856077
0.02545650
0.02237507
0.01931900
0.01628043
0.01326964
0.01028137
0.00731303
0.00436960
0.00145073
-0.00144569
-0.00432242
-0.00717487
-0.01000507
-0.01281119
-0.01559548
-0.01836250
-0.02110331
-0.02382228
-0.02651763
-0.02919153
-0.03184405
-0.03447953
-0.03708948
-0.03967626
-0.04224372
-0.04478842
-0.04731197
-0.04981465
-0.05229442
-0.05475561
-0.05719426
-0.05961628
-0.06201364
-0.06438877
-0.06674538
-0.06907992
-0.07139606
-0.07369029
-0.07596252
-0.07821655
-0.08045086
-0.08266343
-0.08485627
-0.08702925
-0.08918280
-0.09131500
-0.09342957
-0.09551953
-0.09759364
-0.09964851
-0.10168421
-0.10369909
-0.10569685
-0.10767378
-0.10963185
-0.11156962
-0.11349018
-0.11538897
-0.11727069
-0.11913407
-0.12097902
-0.12280545
-0.12461218
-0.12639919
-0.12816961
-0.12992197
-0.13165618
-0.13336982
-0.13506696
-0.13674763
-0.13840943
-0.14005063
-0.14167712
-0.14328473
-0.14487630
-0.14644659
-0.14800221
-0.14954075
-0.15105941
-0.15256248
-0.15404973
-0.15551637
-0.15696873
-0.15840418
-0.15982061
-0.16122166
-0.16260615
-0.16397287
-0.16532448
-0.16665745
-0.16797532
-0.16927812
-0.17056155
-0.17183106
-0.17308242
-0.17432003
-0.17553968
-0.17674474
-0.17793193
-0.17910557
-0.18026174
-0.18140433
-0.18252963
-0.18364048
-0.18473425
-0.18581472
-0.18687820
-0.18792746
-0.18896092
-0.18998036
-0.19098407
-0.19197301
-0.19294640
-0.19390518
-0.19485021
-0.19577994
-0.19669445
-0.19759618
-0.19848215
-0.19935459
-0.20021213
-0.20105494
-0.20188513
-0.20270002
-0.20350098
-0.20428890
-0.20506167
-0.20582153
-0.20656715
-0.20729983
-0.20801849
-0.20872377
-0.20941513
-0.21009445
-0.21075941
-0.21141127
-0.21205010
-0.21267650
-0.21328892
-0.21388857
-0.21447542
-0.21504958
-0.21561160
-0.21616061
-0.21669661
-0.21722025
-0.21773150
-0.21823050
-0.21871725
-0.21919148
-0.21965439
-0.22010452
-0.22054270
-0.22096901
-0.22138314
-0.22178589
-0.22217662
-0.22255574
-0.22292332
-0.22327943
-0.22362383
-0.22395690
-0.22427898
-0.22458933
-0.22488880
-0.22517719
-0.22545435
-0.22572079
-0.22597613
-0.22622069
-0.22645430
-0.22667743
-0.22688979
-0.22709176
-0.22728311
-0.22746389
-0.22763435
-0.22779455
-0.22794468
-0.22808453
-0.22821432
-0.22833400
-0.22844384
-0.22854363
-0.22863371
-0.22871404
-0.22878471
-0.22884575
-0.22889724
-0.22893918
-0.22897175
-0.22899497
-0.22900891
-0.22901362
-0.22900918
-0.22899567
-0.22897313
-0.22894167
-0.22890133
-0.22885213
-0.22879426
-0.22872765
-0.22865235
-0.22856854
-0.22847639
-0.22837573
-0.22826661
-0.22814938
-0.22802381
-0.22789029
-0.22774844
-0.22759853
-0.22744103
-0.22727521
-0.22710198
-0.22692067
-0.22673160
-0.22653522
-0.22633109
-0.22611959
-0.22590044
-0.22567428
-0.22544040
-0.22519965
-0.22495147
-0.22469636
-0.22443394
-0.22416498
-0.22388858
-0.22360577
-0.22331589
-0.22301947
-0.22271639
-0.22240666
-0.22209061
-0.22176780
-0.22143880
-0.22110315
-0.22076174
-0.22041381
-0.22005965
-0.21969967
-0.21933333
-0.21896128
-0.21858362
-0.21819943
-0.21781007
-0.21741497
-0.21701381
-0.21660774
-0.21619574
-0.21577856
-0.21535561
-0.21492765
-0.21449438
-0.21405545
-0.21361208
-0.21316361
-0.21271004
-0.21225151
-0.21178761
-0.21131961
-0.21084642
-0.21036885
-0.20988657
-0.20939927
-0.20890779
-0.20841223
-0.20791222
-0.20740782
-0.20689909
-0.20638569
-0.20586848
-0.20534755
-0.20482216
-0.20429312
-0.20376064
-0.20322379
-0.20268309
-0.20213905
-0.20159135
-0.20103994
-0.20048498
-0.19992649
-0.19936497
-0.19879959
-0.19823131
-0.19765973
-0.19708497
-0.19650751
-0.19592642
-0.19534279
-0.19475618
-0.19416663
-0.19357427
-0.19297952
-0.19238159
-0.19178141
-0.19117864
-0.19057331
-0.18996546
-0.18935517
-0.18874352
-0.18812906
-0.18751232
-0.18689331
-0.18627221
-0.18564957
-0.18502541
-0.18439871
-0.18377016
-0.18313970
-0.18250744
-0.18187458
-0.18123953
-0.18060224
-0.17996396
-0.17932418
-0.17868411
-0.17804209
-0.17739817
-0.17675414
-0.17610832
-0.17546195
-0.17481390
-0.17416594
-0.17351589
-0.17286552
-0.17221541
-0.17156339
-0.17091058
-0.17025832
-0.16960480
-0.16895131
-0.16829678
-0.16764176
-0.16698752
-0.16633243
-0.16567760
-0.16502197
-0.16436619
-0.16371090
-0.16305557
-0.16240085
-0.16174503
-0.16109112
-0.16043621
-0.15978215
-0.15912834
-0.15847555
-0.15782199
-0.15717063
-0.15651869
-0.15586793
-0.15521776
-0.15456889
-0.15391968
-0.15327299
-0.15262665
-0.15198060
-0.15133672
-0.15069331
-0.15005165
-0.14941110
-0.14877119
-0.14813371
-0.14749642
-0.14686167
-0.14622837
-0.14559601
-0.14496629
-0.14433825
-0.14371131
-0.14308611
-0.14246320
-0.14184220
-0.14122309
-0.14060589
-0.13999131
-0.13937875
-0.13876781
-0.13815955
-0.13755408
-0.13695035
-0.13634902
-0.13575060
-0.13515463
-0.13456117
-0.13397083
-0.13338257
-0.13279700
-0.13221470
-0.13163519
-0.13105854
-0.13048530
-0.12991503
-0.12934720
-0.12878250
-0.12822143
-0.12766401
-0.12710936
-0.12655851
-0.12601095
-0.12546679
-0.12492613
-0.12438894
-0.12385580
-0.12332584
-0.12280000
-0.12227788
-0.12175960
-0.12124557
-0.12073497
-0.12022878
-0.11972660
-0.11922847
-0.11873445
-0.11824460
-0.11775937
-0.11727801
-0.11680143
-0.11632923
-0.11586227
-0.11539899
-0.11494022
-0.11448650
-0.11403740
-0.11359304
-0.11315341
-0.11271863
-0.11228947
-0.11186483
-0.11144520
-0.11103056
-0.11062101
-0.11021697
-0.10981811
-0.10942449
-0.10903582
-0.10865285
-0.10827598
-0.10790387
-0.10753760
-0.10717657
-0.10682178
-0.10647237
-0.10612899
-0.10579135
-0.10545956
-0.10513336
-0.10481365
-0.10449966
-0.10419197
-0.10389037
-0.10359493
-0.10330540
-0.10302264
-0.10274595
-0.10247607
-0.10221214
-0.10195465
-0.10170415
-0.10145997
-0.10122285
-0.10099196
-0.10076779
-0.10055078
-0.10034025
-0.10013693
-0.09994038
-0.09975113
-0.09956859
-0.09939346
-0.09922516
-0.09906433
-0.09891060
-0.09876443
-0.09862533
-0.09849389
-0.09836987
-0.09825313
-0.09814425
-0.09804278
-0.09794905
-0.09786309
-0.09778474
-0.09771434
-0.09765173
-0.09759713
-0.09755044
-0.09751175
-0.09748113
-0.09745866
-0.09744431
-0.09743820
-0.09744034
-0.09745080
-0.09746962
-0.09749685
-0.09753249
-0.09757673
-0.09762949
-0.09769082
-0.09776081
-0.09783965
-0.09792713
-0.09802333
-0.09812850
-0.09824268
-0.09836561
-0.09849757
-0.09863860
-0.09878861
-0.09894792
-0.09911662
-0.09929428
-0.09948127
-0.09967761
-0.09988337
-0.10009841
-0.10032316
-0.10055726
-0.10080100
-0.10105463
-0.10131776
-0.10159064
-0.10187311
-0.10216540
-0.10246764
-0.10277983
-0.10310205
-0.10343430
-0.10377638
-0.10412895
-0.10449141
-0.10486412
-0.10524714
-0.10564016
-0.10604396
-0.10645784
-0.10688221
-0.10731719
-0.10776272
-0.10821849
-0.10868499
-0.10916219
-0.10965064
-0.11014954
-0.11065929
-0.11117955
-0.11171124
-0.11225301
-0.11280638
-0.11337083
-0.11394652
-0.11453346
-0.11513163
-0.11574006
-0.11636043
-0.11699223
-0.11763551
-0.11829032
-0.11895546
-0.11963346
-0.12032251
-0.12102327
-0.12173520
-0.12245954
-0.12319506
-0.12394255
-0.12470192
-0.12547330
-0.12625606
-0.12705159
-0.12785935
-0.12867777
-0.12950912
-0.13035283
-0.13120808
-0.13207644
-0.13295732
-0.13384901
-0.13475483
-0.13567159
-0.13660184
-0.13754476
-0.13849860
-0.13946701
-0.14044648
-0.14143963
-0.14244474
-0.14346374
-0.14449478
-0.14553896
-0.14659512
-0.14766642
-0.14874898
-0.14984569
-0.15095370
-0.15207702
-0.15321169
-0.15436182
-0.15552335
-0.15669937
-0.15788682
-0.15908899
-0.16030479
-0.16153430
-0.16277743
-0.16403329
-0.16530189
-0.16658652
-0.16788399
-0.16919432
-0.17051977
-0.17185803
-0.17321039
-0.17457689
-0.17595772
-0.17735135
-0.17876191
-0.18018295
-0.18161955
