corrn_curve_linear
1.87513001
1.87396257
1.87279352
1.87162608
1.87045703
1.86928967
1.86812223
1.86695487
1.86578743
1.86461999
1.86345424
1.86228688
1.86112113
1.85995369
1.85878793
1.85762218
1.85645643
1.85529068
1.85412653
1.85296078
1.85179672
1.85063097
1.84946852
1.84830437
1.84714031
1.84597616
1.84481202
1.84364956
1.84248550
1.84132305
1.84016060
1.83899814
1.83783569
1.83667323
1.83551238
1.83434993
1.83318917
1.83202840
1.83086595
1.82970510
1.82854434
1.82738518
1.82622433
1.82506357
1.82390441
1.82274525
1.82158610
1.82042525
1.81926778
1.81810862
1.81694947
1.81579200
1.81463284
1.81347529
1.81231783
1.81116036
1.81000281
1.80884534
1.80768779
1.80653032
1.80537615
1.80421860
1.80306274
1.80190688
1.80074942
1.79959525
1.79843939
1.79728522
1.79612936
1.79497510
1.79382093
1.79266677
1.79151251
1.79035834
1.78920417
1.78805161
1.78689736
1.78574488
1.78459231
1.78343975
1.78228558
1.78113463
1.77998215
1.77882958
1.77767702
1.77652615
1.77537688
1.77422432
1.77307345
1.77192258
1.77077162
1.76962235
1.76847148
1.76732222
1.76617303
1.76502292
1.76387366
1.76272524
1.76157521
1.76042764
1.75927921
1.75813164
1.75698237
1.75583480
1.75468714
1.75353872
1.75239199
1.75124518
1.75009929
1.74895248
1.74780490
1.74665893
1.74551305
1.74436793
1.74322196
1.74207599
1.74093086
1.73978583
1.73864146
1.73749719
1.73635291
1.73520694
1.73406351
1.73291923
1.73177571
1.73063313
1.72948961
1.72834702
1.72720435
1.72606176
1.72491909
1.72377726
1.72263459
1.72149201
1.72035018
1.71920920
1.71806737
1.71692639
1.71578541
1.71464528
1.71350421
1.71236408
1.71122555
1.71008541
1.70894604
1.70780675
1.70666737
1.70552808
1.70438871
1.70325018
1.70211174
1.70097321
1.69983468
1.69869699
1.69756016
1.69642323
1.69528555
1.69414787
1.69301103
1.69187419
1.69073896
1.68960212
1.68846604
1.68733005
1.68619397
1.68505959
1.68392359
1.68278836
1.68165313
1.68051798
1.67938436
1.67824997
1.67711558
1.67598289
1.67484850
1.67371496
1.67258142
1.67144864
1.67031594
1.66918240
1.66805047
1.66691769
1.66578584
1.66465475
1.66352197
1.66239172
1.66125987
1.66012794
1.65899770
1.65786661
1.65673552
1.65560612
1.65447503
1.65334639
1.65221530
1.65108675
1.64995727
1.64882871
1.64769847
1.64657068
1.64544119
1.64431340
1.64318485
1.64205790
1.64092926
1.63980232
1.63867368
1.63754758
1.63641979
1.63529369
1.63416589
1.63304064
1.63191445
1.63078751
1.62966225
1.62853606
1.62741081
1.62628631
1.62516021
1.62403572
1.62291207
1.62178673
1.62066308
1.61953943
1.61841417
1.61729137
1.61616772
1.61504407
1.61392118
1.61279837
1.61167642
1.61055277
1.60943072
1.60830876
1.60718757
1.60606476
1.60494356
1.60382237
1.60270117
1.60157921
1.60045886
1.59933851
1.59821815
1.59709865
1.59597829
1.59485794
1.59373843
1.59261893
1.59150018
1.59038152
1.58926277
1.58814411
1.58702537
1.58590755
1.58478804
1.58367014
1.58255309
1.58143519
1.58031821
1.57920116
1.57808495
1.57696789
1.57585168
1.57473539
1.57361918
1.57250297
1.57138761
1.57027140
1.56915595
1.56804143
1.56692598
1.56581146
1.56469686
1.56358234
1.56246773
1.56135482
1.56024106
1.55912730
1.55801355
1.55690063
1.55578772
1.55467396
1.55356105
1.55244983
1.55133776
1.55022561
1.54911354
1.54800147
1.54688932
1.54577971
1.54466764
1.54355718
1.54244596
1.54133465
1.54022588
1.53911542
1.53800504
1.53689458
1.53578581
1.53467620
1.53356658
1.53245857
1.53134980
1.53024019
1.52913302
1.52802425
1.52691624
1.52580916
1.52470115
1.52359323
1.52248606
1.52137890
1.52027182
1.51916550
1.51805834
1.51695287
1.51584655
1.51473938
1.51363476
1.51252844
1.51142373
1.51031825
1.50921363
1.50810815
1.50700344
1.50589966
1.50479495
1.50369116
1.50258645
1.50148343
1.50037965
1.49927663
1.49817445
1.49707058
1.49596841
1.49486539
1.49376321
1.49266104
1.49155970
1.49045829
1.48935527
1.48825478
1.48715261
1.48605204
1.48495231
1.48385014
1.48275041
1.48165069
1.48054936
1.47945048
1.47835076
1.47725027
1.47615139
1.47505327
1.47395279
1.47285476
1.47175664
1.47065861
1.46955973
1.46846169
1.46736442
1.46626723
1.46516835
1.46407193
1.46297465
1.46187831
1.46078189
1.45968377
1.45858827
1.45749184
1.45639626
1.45530068
1.45420594
1.45310952
1.45201394
1.45091920
1.44982438
1.44873049
1.44763575
1.44654178
1.44544789
1.44435391
1.44326086
1.44216604
1.44107300
1.43997987
1.43888674
1.43779369
1.43670141
1.43560912
1.43451684
1.43342456
1.43233312
1.43124168
1.43015024
1.42905872
1.42796728
1.42687668
1.42578685
1.42469710
1.42360642
1.42251583
1.42142600
1.42033625
1.41924642
1.41815658
1.41706760
1.41597869
1.41489055
1.41380156
1.41271342
1.41162444
1.41053629
1.40944815
1.40836162
1.40727432
1.40618618
1.40509880
1.40401150
1.40292581
1.40183936
1.40075198
1.39966553
1.39858068
1.39749415
1.39640846
1.39532277
1.39423792
1.39315308
1.39206747
1.39098339
1.38989854
1.38881370
1.38773054
1.38664646
1.38556162
1.38447931
1.38339522
1.38231122
1.38122883
1.38014568
1.37906413
1.37798089
1.37689774
1.37581619
1.37473380
1.37365309
1.37257070
1.37149000
1.37040845
1.36932775
1.36824620
1.36716634
1.36608556
1.36500570
1.36392500
1.36284590
1.36176520
1.36068610
1.35960625
1.35852715
1.35744730
1.35636905
1.35529164
1.35421170
1.35313429
1.35205520
1.35097779
1.34990123
1.34882214
1.34774558
1.34666733
1.34559068
1.34451497
1.34343756
1.34236092
1.34128521
1.34020856
1.33913285
1.33805705
1.33698210
1.33590638
1.33483143
1.33375647
1.33268068
1.33160657
1.33053246
1.32945835
1.32838424
1.32730929
1.32623603
1.32516277
1.32409026
1.32301700
1.32194289
1.32087039
1.31979798
1.31872547
1.31765382
1.31658140
1.31550890
1.31443724
1.31336567
1.31229486
1.31122320
1.31015239
1.30908158
1.30801162
1.30694081
1.30587076
1.30480079
1.30373083
1.30266162
1.30159081
1.30052169
1.29945249
1.29838337
1.29731416
1.29624589
1.29517837
1.29411002
1.29304166
1.29197414
1.29090663
1.28983835
1.28877160
1.28770409
1.28663657
1.28556991
1.28450324
1.28343657
1.28236990
1.28130484
1.28023902
1.27917311
1.27810729
1.27704223
1.27597640
1.27491134
1.27384712
1.27278215
1.27171793
1.27065287
1.26958865
1.26852613
1.26746191
1.26639769
1.26533432
1.26427171
1.26320834
1.26214582
1.26108244
1.26002068
1.25895815
1.25789563
1.25683471
1.25577210
1.25471042
1.25364950
1.25258773
1.25152690
1.25046674
1.24940506
1.24834414
1.24728491
1.24622399
1.24516477
1.24410469
1.24304453
1.24198531
1.24092608
1.23986761
1.23880838
1.23775000
1.23669068
1.23563230
1.23457468
1.23351545
1.23245867
1.23140021
1.23034343
1.22928505
1.22822903
1.22717149
1.22611472
1.22505870
1.22400192
1.22294599
1.22188922
1.22083413
1.21977735
1.21872218
1.21766786
1.21661193
1.21555684
1.21450167
1.21344743
1.21239310
1.21133793
1.21028445
1.20923106
1.20817673
1.20712325
1.20607062
1.20501630
1.20396366
1.20291103
1.20185839
1.20080491
1.19975304
1.19870125
1.19764938
1.19659674
1.19554580
1.19449477
1.19344374
1.19239280
1.19134093
1.19028998
1.18923980
1.18818962
1.18713944
1.18608841
1.18503907
1.18398889
1.18293955
1.18189106
1.18084172
1.17979315
1.17874381
1.17769447
1.17664598
1.17559749
1.17454976
1.17350203
1.17245438
1.17140665
1.17035977
1.16931212
1.16826524
1.16721835
1.16617146
1.16512543
1.16407862
1.16303250
1.16198646
1.16094042
1.15989523
1.15884919
1.15780399
1.15675871
1.15571352
1.15466917
1.15362558
1.15258115
1.15153680
1.15049236
1.14944802
1.14840443
1.14736084
1.14631734
1.14527459
1.14423185
1.14318826
1.14214552
1.14110278
1.14006003
1.13901898
1.13797700
1.13693510
1.13589320
1.13485291
1.13381102
1.13276988
1.13172798
1.13068854
1.12964749
1.12860635
1.12756614
1.12652670
1.12548641
1.12444696
1.12340751
1.12236807
1.12132862
1.12029002
1.11925058
1.11821198
1.11717422
1.11613562
1.11509702
1.11405918
1.11302143
1.11198443
1.11094668
1.10990969
1.10887193
1.10783494
1.10679879
1.10576103
1.10472573
1.10368874
1.10265343
1.10161644
1.10058198
1.09954583
1.09851053
1.09747523
1.09644077
1.09540462
1.09437092
1.09333562
1.09230201
1.09126831
1.09023301
1.08920016
1.08816570
1.08713285
1.08610000
1.08506554
1.08403353
1.08299984
1.08196783
1.08093583
1.07990221
1.07887097
1.07783896
1.07680696
1.07577580
1.07474464
1.07371263
1.07268147
1.07165107
1.07062075
1.06958875
1.06855919
1.06752880
1.06649933
1.06546808
1.06443937
1.06340990
1.06238035
1.06135164
1.06032124
1.05929338
1.05826467
1.05723596
1.05620810
1.05518023
1.05415068
1.05312366
1.05209571
1.05106869
1.05004168
1.04901457
1.04798756
1.04696045
1.04593428
1.04490633
1.04388016
1.04285475
1.04182849
1.04080308
1.03977691
1.03875150
1.03772693
1.03670152
1.03567687
1.03465154
1.03362689
1.03260232
1.03157860
1.03055404
1.02953023
1.02850651
1.02748279
1.02646068
1.02543687
1.02441399
1.02339103
1.02236816
1.02134520
1.02032309
1.01930021
1.01827810
1.01725759
1.01623556
1.01521420
1.01419217
1.01317090
1.01214955
1.01112997
1.01010870
1.00908828
1.00806777
1.00704735
1.00602769
1.00500811
1.00398760
1.00296802
1.00194920
1.00092963
0.99991081
0.99889284
0.99787402
0.99685436
0.99583638
0.99481841
0.99380044
0.99278247
0.99176534
0.99074737
0.98973109
0.98871312
0.98769591
0.98667962
0.98566250
0.98464529
0.98362985
0.98261349
0.98159797
0.98058168
0.97956701
0.97855073
0.97753605
0.97652053
0.97550501
0.97449034
0.97347566
0.97246184
0.97144631
0.97043333
0.96941866
0.96840567
0.96739260
0.96637793
0.96536579
0.96435188
0.96333889
0.96232591
0.96131369
0.96030146
0.95928848
0.95827710
0.95726403
0.95625274
0.95524136
0.95422914
0.95321861
0.95220807
0.95119585
0.95018532
0.94917563
0.94816426
0.94715448
0.94614480
0.94513342
0.94412458
0.94311481
0.94210597
0.94109535
0.94008651
0.93907843
0.93806950
0.93705981
0.93605173
0.93504365
0.93403566
0.93302842
0.93201950
0.93101226
0.93000503
0.92899779
0.92799056
0.92698408
0.92597685
0.92496961
0.92396322
0.92295683
0.92195120
0.92094481
0.91993919
0.91893364
0.91792801
0.91692323
0.91591768
0.91491290
0.91390812
0.91290342
0.91189948
0.91089385
0.90988991
0.90888598
0.90788288
0.90687895
0.90587585
0.90487268
0.90386958
0.90286649
0.90186340
0.90086022
0.89985798
0.89885573
0.89785340
0.89685115
0.89584882
0.89484733
0.89384678
0.89284529
0.89184380
0.89084232
0.88984168
0.88884112
0.88783963
0.88684060
0.88583996
0.88484016
0.88383952
0.88283973
0.88184078
0.88084174
0.87984195
0.87884300
0.87784481
0.87684586
0.87584682
0.87484787
0.87385053
0.87285234
0.87185424
0.87085689
0.86985870
0.86886136
0.86786486
0.86686752
0.86586941
0.86487368
0.86387642
0.86287984
0.86188418
0.86088768
0.85989279
0.85889629
0.85789980
0.85690499
0.85590925
0.85491520
0.85391955
0.85292551
0.85192985
0.85093496
0.84994176
0.84894695
0.84795291
0.84695886
0.84596566
0.84497161
0.84397841
0.84298521
0.84199285
0.84100050
0.84000645
0.83901486
0.83802166
0.83703015
0.83603694
0.83504620
0.83405460
0.83306225
0.83207150
0.83108083
0.83008839
0.82909849
0.82810698
0.82711623
0.82612632
0.82513557
0.82414567
0.82315577
0.82216671
0.82117596
0.82018690
0.81919784
0.81820794
0.81721888
0.81623058
0.81524237
0.81425331
0.81326501
0.81227680
0.81128935
0.81030189
0.80931284
0.80832538
0.80733802
0.80635141
0.80536480
0.80437820
0.80338998
0.80240338
0.80141753
0.80043101
0.79944516
0.79845940
0.79747364
0.79648872
0.79550296
0.79451796
0.79353135
0.79254644
0.79156228
0.79057737
0.78959321
0.78860830
0.78762414
0.78664083
0.78565676
0.78467261
0.78368930
0.78270599
0.78172276
0.78073945
0.77975699
0.77877368
0.77779282
0.77681036
0.77582789
0.77484543
0.77386381
0.77288126
0.77189964
0.77091802
0.76993717
0.76895555
0.76797553
0.76699476
0.76601390
0.76503305
0.76405227
0.76307226
0.76209309
0.76111308
0.76013307
0.75915314
0.75817473
0.75719557
0.75621564
0.75523639
0.75425891
0.75327974
0.75230142
0.75132225
0.75034554
0.74936722
0.74838881
0.74741218
0.74643462
0.74545630
0.74448043
0.74350287
0.74252539
0.74154952
0.74057281
0.73959609
0.73862031
0.73764359
0.73666857
0.73569270
0.73471598
0.73374172
0.73276585
0.73179167
0.73081580
0.72984162
0.72886651
0.72789318
0.72691815
0.72594473
0.72496971
0.72399629
0.72302211
0.72204954
0.72107527
0.72010270
0.71912937
0.71815680
0.71718338
0.71621080
0.71523823
0.71426650
0.71329478
0.71232220
0.71135048
0.71037960
0.70940702
0.70843606
0.70746433
0.70649345
0.70552333
0.70455160
0.70358148
0.70261144
0.70164047
0.70067128
0.69970116
0.69873189
0.69776185
0.69679257
0.69582330
0.69485487
0.69388475
0.69291632
0.69194789
0.69097946
0.69001018
0.68904260
0.68807493
0.68710734
0.68613976
0.68517133
0.68420366
0.68323692
0.68227009
0.68130336
0.68033653
0.67936979
0.67840381
0.67743623
0.67647025
0.67550427
0.67453829
0.67357316
0.67260718
0.67164205
0.67067692
0.66971178
0.66874665
0.66778236
0.66681807
0.66585294
0.66488941
0.66392513
0.66296084
0.66199731
0.66103302
0.66006958
0.65910606
0.65814337
0.65717993
0.65621725
0.65525381
0.65429113
0.65332929
0.65236746
0.65140562
0.65044294
0.64948119
0.64851935
0.64755828
0.64659644
0.64563629
0.64467530
0.64371431
0.64275324
0.64179225
0.64083126
0.63987187
0.63891173
0.63795158
0.63699135
0.63603281
0.63507267
0.63411329
0.63315399
0.63219545
0.63123691
0.63027752
0.62931983
0.62836129
0.62740191
0.62644345
0.62548652
0.62452883
0.62357029
0.62261344
0.62165575
0.62069966
0.61974197
0.61878427
0.61782903
0.61687134
0.61591610
0.61495925
0.61400232
0.61304707
0.61209107
0.61113583
0.61017974
0.60922535
0.60826934
0.60731495
0.60635971
0.60540531
0.60445007
0.60349652
0.60254128
0.60158773
0.60063333
0.59967969
0.59872614
0.59777259
0.59681980
0.59586625
0.59491346
0.59395991
0.59300797
0.59205526
0.59110247
0.59015053
0.58919782
0.58824588
0.58729478
0.58634207
0.58539097
0.58443987
0.58348793
0.58253768
0.58158658
0.58063624
0.57968514
0.57873489
0.57778463
0.57683353
0.57588404
0.57493463
0.57398514
0.57303573
0.57208548
0.57113683
0.57018742
0.56923878
0.56829013
0.56734072
0.56639207
0.56544427
0.56449647
0.56354867
0.56260086
0.56165230
0.56070450
0.55975746
0.55880974
0.55786270
0.55691659
0.55596963
0.55502268
0.55407648
0.55313037
0.55218417
0.55123806
0.55029195
0.54934660
0.54840049
0.54745514
0.54650979
0.54556452
0.54462002
0.54367467
0.54273016
0.54178566
0.54084115
0.53989673
0.53895299
0.53800857
0.53706483
0.53612117
0.53517751
0.53423385
0.53329019
0.53234814
0.53140532
0.53046251
0.52951961
0.52857680
0.52763483
0.52669362
0.52575157
0.52480960
0.52386754
0.52292549
0.52198513
0.52104401
0.52010195
0.51916075
0.51821954
0.51728002
0.51633966
0.51539845
0.51445893
0.51351857
0.51257906
0.51163869
0.51069994
0.50975958
0.50882006
0.50788215
0.50694263
0.50600303
0.50506520
0.50412645
0.50318854
0.50224987
0.50131111
0.50037405
0.49943622
0.49849915
0.49756124
0.49662333
0.49568627
0.49474920
0.49381298
0.49287507
0.49193970
0.49100263
0.49006641
0.48913011
0.48819474
0.48725767
0.48632306
0.48538684
0.48445146
0.48351600
0.48258139
0.48164517
0.48071140
0.47977687
0.47884142
0.47790765
0.47697303
0.47603935
0.47510558
0.47417097
0.47323805
0.47230343
0.47137051
0.47043759
0.46950382
0.46857166
0.46763958
0.46670666
0.46577374
0.46484158
0.46390950
0.46297742
0.46204526
0.46111403
0.46018271
0.45925063
0.45831932
0.45738885
0.45645753
0.45552630
0.45459583
0.45366536
0.45273489
0.45180526
0.45087479
0.44994432
0.44901470
0.44808507
0.44715544
0.44622666
0.44529788
0.44436817
0.44343855
0.44250977
0.44158175
0.44065297
0.43972504
0.43879702
0.43786900
0.43694106
0.43601304
0.43508587
0.43415794
0.43323076
0.43230359
0.43137650
0.43045017
0.42952300
0.42859667
0.42767034
0.42674401
0.42581768
0.42489136
0.42396579
0.42303946
0.42211398
0.42118850
0.42026462
0.41933914
0.41841357
0.41748893
0.41656421
0.41563957
0.41471485
0.41379021
0.41286718
0.41194330
0.41101951
0.41009564
0.40917176
0.40824873
0.40732570
0.40640267
0.40547879
0.40455576
0.40363442
0.40271139
0.40178920
0.40086617
0.39994475
0.39902256
0.39810122
0.39717980
0.39625846
0.39533627
0.39441569
0.39349435
0.39257377
0.39165319
0.39073270
0.38981127
0.38889154
0.38797104
0.38705207
0.38613158
0.38521100
0.38429211
0.38337237
0.38245433
0.38153460
0.38061486
0.37969673
0.37877709
0.37785896
0.37694007
0.37602279
0.37510390
0.37418670
0.37326781
0.37235053
0.37143249
0.37051605
0.36959792
0.36868157
0.36776513
0.36684701
0.36593141
0.36501422
0.36409778
0.36318219
0.36226491
0.36134931
0.36043288
0.35951813
0.35860254
0.35768695
0.35677136
0.35585737
0.35494094
0.35402704
0.35311221
0.35219746
0.35128271
0.35036873
0.34945559
0.34854084
0.34762694
0.34671380
0.34580066
0.34488592
0.34397278
0.34306048
0.34214734
0.34123344
0.34032132
0.33940902
0.33849673
0.33758528
0.33667299
0.33575985
0.33484840
0.33393686
0.33302542
0.33211397
0.33120328
0.33029183
0.32938123
0.32847054
0.32755909
0.32664840
0.32573780
0.32482796
0.32391820
0.32300836
0.32209851
0.32118867
0.32027891
0.31936992
0.31846007
0.31755108
0.31664208
0.31573308
0.31482493
0.31391593
0.31300778
0.31209963
0.31119139
0.31028324
0.30937594
0.30846854
0.30756124
0.30665309
0.30574570
0.30483839
0.30393184
0.30302454
0.30211884
0.30121229
0.30030583
0.29939929
0.29849274
0.29758628
0.29668143
0.29577573
0.29487003
0.29396433
0.29305863
0.29215462
0.29124892
0.29034406
0.28943921
0.28853511
0.28763026
0.28672625
0.28582216
0.28491815
0.28401414
0.28311089
0.28220688
0.28130279
0.28040039
0.27949722
0.27859397
0.27769157
0.27678841
0.27588516
0.27498360
0.27408044
0.27317888
0.27227648
0.27137407
0.27047336
0.26957096
0.26867016
0.26776861
0.26686789
0.26596634
0.26506562
0.26416483
0.26326496
0.26236340
0.26146345
0.26056274
0.25966364
0.25876292
0.25786382
0.25696311
0.25606400
0.25516413
0.25426587
0.25336677
0.25246766
0.25156856
0.25066954
0.24977128
0.24887378
0.24797475
0.24707649
0.24617899
0.24528073
0.24438332
0.24348591
0.24258849
0.24169099
0.24079442
0.23989616
0.23900035
0.23810378
