corrn_curve_cubic
3.38351949
3.37776785
3.37203967
3.36630257
3.36058061
3.35486631
3.34915885
3.34346690
3.33778217
3.33209645
3.32642618
3.32076314
3.31510732
3.30945872
3.30382552
3.29819135
3.29256439
3.28695238
3.28134757
3.27575035
3.27015991
3.26457707
3.25900100
3.25343252
3.24787890
3.24233243
3.23678507
3.23126097
3.22572794
3.22021010
3.21470743
3.20920388
3.20371507
3.19822581
3.19275167
3.18728425
3.18182434
3.17637910
3.17093342
3.16549446
3.16007053
3.15464619
3.14923645
3.14383379
3.13843823
3.13304975
3.12766836
3.12229405
3.11693465
3.11157449
3.10623662
3.10089060
3.09555904
3.09023493
3.08492524
3.07961522
3.07431186
3.06902328
3.06374210
3.05846757
3.05319236
3.04793956
3.04268609
3.03743963
3.03220785
3.02697541
3.02175762
3.01654644
3.01134263
3.00614581
3.00095559
2.99577274
2.99060407
2.98544236
2.98028042
2.97513264
2.96999181
2.96485831
2.95973139
2.95461142
2.94950590
2.94440693
2.93930815
2.93422304
2.92914523
2.92407434
2.91901743
2.91395295
2.90890985
2.90386662
2.89883733
2.89381530
2.88879979
2.88378749
2.87878613
2.87379496
2.86881066
2.86383324
2.85886598
2.85390594
2.84894912
2.84400645
2.83905971
2.83413074
2.82920825
2.82429296
2.81938415
2.81448615
2.80959100
2.80470630
2.79983201
2.79496130
2.79010064
2.78524678
2.78039974
2.77555949
2.77072962
2.76590654
2.76109025
2.75628040
2.75147768
2.74669202
2.74190640
2.73712755
2.73235512
2.72759333
2.72283795
2.71808933
2.71334781
2.70861620
2.70389482
2.69917669
2.69446878
2.68976412
2.68506966
2.68038194
2.67570752
2.67103323
2.66636912
2.66171137
2.65706067
2.65242322
2.64778592
2.64315842
2.63853795
2.63393067
2.62932322
2.62472622
2.62013554
2.61555801
2.61098102
2.60641375
2.60185618
2.59730223
2.59275493
2.58822440
2.58369039
2.57916606
2.57465543
2.57014772
2.56564363
2.56115587
2.55666805
2.55219351
2.54771925
2.54326125
2.53880320
2.53435176
2.52991354
2.52547860
2.52105356
2.51663510
2.51222618
2.50781759
2.50342543
2.49903294
2.49465390
2.49027456
2.48590863
2.48154567
2.47719577
2.47284950
2.46851268
2.46417916
2.45985542
2.45553821
2.45123075
2.44692981
2.44263218
2.43834749
2.43406610
2.42979410
2.42552893
2.42126707
2.41701776
2.41277812
2.40853576
2.40430909
2.40008889
2.39586917
2.39166508
2.38746430
2.38326717
2.37908215
2.37490704
2.37073525
2.36656679
2.36241103
2.35826171
2.35411851
2.34997897
2.34585206
2.34173127
2.33761722
2.33351236
2.32940806
2.32531604
2.32123042
2.31715121
2.31308147
2.30901231
2.30495537
2.30090481
2.29686339
2.29282561
2.28879725
2.28477526
2.28076237
2.27675313
2.27275027
2.26875648
2.26476935
2.26078827
2.25681685
2.25285148
2.24889245
2.24493976
2.24099668
2.23705964
2.23312893
2.22920455
2.22528915
2.22137771
2.21747495
2.21357879
2.20969188
2.20580834
2.20193375
2.19806574
2.19420374
2.19035676
2.18650762
2.18266739
2.17883344
2.17500895
2.17118755
2.16737531
2.16356933
2.15976962
2.15598191
2.15219758
2.14841950
2.14464739
2.14088181
2.13712532
2.13337762
2.12963359
2.12589835
2.12216678
2.11844681
2.11473051
2.11102014
2.10731881
2.10362647
2.09993754
2.09625509
2.09257856
2.08891352
2.08525216
2.08159699
2.07795077
2.07431073
2.07067410
2.06704889
2.06342737
2.05981449
2.05621051
2.05260748
2.04901335
2.04543055
2.04184845
2.03827793
2.03471084
2.03115015
2.02760047
2.02405205
2.02051462
2.01698088
2.01345864
2.00993714
2.00642685
2.00292025
1.99942483
1.99593044
1.99244748
1.98896503
1.98549662
1.98202927
1.97857039
1.97511785
1.97167376
1.96823311
1.96480378
1.96137527
1.95795806
1.95454925
1.95114154
1.94774250
1.94434950
1.94096513
1.93758913
1.93421426
1.93085033
1.92749267
1.92413566
1.92079262
1.91745534
1.91411896
1.91079371
1.90747701
1.90416148
1.90085678
1.89755782
1.89426511
1.89097587
1.88769765
1.88442291
1.88115892
1.87789389
1.87464184
1.87139576
1.86815589
1.86491702
1.86169132
1.85847156
1.85525553
1.85204990
1.84884824
1.84564982
1.84246225
1.83927817
1.83610492
1.83293515
1.82977374
1.82661583
1.82346844
1.82031995
1.81718463
1.81405257
1.81092907
1.80781122
1.80470192
1.80159587
1.79849811
1.79540647
1.79232048
1.78924275
1.78616853
1.78310255
1.78004244
1.77698821
1.77394219
1.77090203
1.76786539
1.76483905
1.76181647
1.75879973
1.75579094
1.75278822
1.74979573
1.74680468
1.74382155
1.74084424
1.73787299
1.73490733
1.73194978
1.72899576
1.72605440
1.72311429
1.72017998
1.71725375
1.71433331
1.71141867
1.70851185
1.70561104
1.70271377
1.69982431
1.69694085
1.69406741
1.69119750
1.68833136
1.68547299
1.68262481
1.67977818
1.67693930
1.67410836
1.67128098
1.66845935
1.66564564
1.66283986
1.66003741
1.65724092
1.65445449
1.65166945
1.64889425
1.64612282
1.64335689
1.64060119
1.63784883
1.63510026
1.63236358
1.62962834
1.62690304
1.62418132
1.62146739
1.61875726
1.61605260
1.61335762
1.61066642
1.60798299
1.60530314
1.60263313
1.59996649
1.59730779
1.59465268
1.59200509
1.58936335
1.58672911
1.58410051
1.58147570
1.57886042
1.57624669
1.57364267
1.57104225
1.56845150
1.56586637
1.56328282
1.56070892
1.55813862
1.55557794
1.55302266
1.55046918
1.54792530
1.54538880
1.54285411
1.54032879
1.53780924
1.53529310
1.53278471
1.53028366
1.52778818
1.52529632
1.52281197
1.52033513
1.51786190
1.51539424
1.51293406
1.51047944
1.50803228
1.50558682
1.50315056
1.50072192
1.49829672
1.49587914
1.49346690
1.49105659
1.48865539
1.48626160
1.48387350
1.48149073
1.47911346
1.47674170
1.47437358
1.47201469
1.46966128
1.46731337
1.46497096
1.46263586
1.46030625
1.45798193
1.45566328
1.45335010
1.45104402
1.44874360
1.44644846
1.44415878
1.44187653
1.43959777
1.43732626
1.43506037
1.43280153
1.43054636
1.42829840
1.42605588
1.42381879
1.42158713
1.41936249
1.41714169
1.41492806
1.41272317
1.41052212
1.40832474
1.40613433
1.40394949
1.40176990
1.39959759
1.39742879
1.39527052
1.39311422
1.39096330
1.38881794
1.38667950
1.38454811
1.38242042
1.38029960
1.37818265
1.37607441
1.37396986
1.37187067
1.36977833
1.36769316
1.36560987
1.36353375
1.36146297
1.35940065
1.35734202
1.35528873
1.35324240
1.35119993
1.34916425
1.34713550
1.34510885
1.34308913
1.34107792
1.33907042
1.33706664
1.33507134
1.33307960
1.33109647
1.32911690
1.32714435
1.32517536
1.32321182
1.32125512
1.31930354
1.31735879
1.31541792
1.31348372
1.31155477
1.30963263
1.30771268
1.30580258
1.30389468
1.30199507
1.30009768
1.29820857
1.29632319
1.29444590
1.29257399
1.29070418
1.28884422
1.28698503
1.28513536
1.28328812
1.28144889
1.27961634
1.27778607
1.27596262
1.27414569
1.27233250
1.27052597
1.26872607
1.26692850
1.26513898
1.26335451
1.26157266
1.25979998
1.25803261
1.25626760
1.25451045
1.25275860
1.25101318
1.24927028
1.24753518
1.24580525
1.24408185
1.24236097
1.24064650
1.23893855
1.23723574
1.23553943
1.23384689
1.23215814
1.23047724
1.22880280
1.22713215
1.22546662
1.22380741
1.22215345
1.22050329
1.21885943
1.21722212
1.21558979
1.21396126
1.21234057
1.21072354
1.20911290
1.20750606
1.20590573
1.20431151
1.20272135
1.20113614
1.19955729
1.19798350
1.19641467
1.19485229
1.19329371
1.19174145
1.19019413
1.18865199
1.18711602
1.18558399
1.18405812
1.18253741
1.18102163
1.17951211
1.17800653
1.17650708
1.17501265
1.17352566
1.17204129
1.17056314
1.16909001
1.16762190
1.16615880
1.16470071
1.16324987
1.16180297
1.16036108
1.15892419
1.15749334
1.15606863
1.15464787
1.15323199
1.15182121
1.15041758
1.14901665
1.14762183
1.14623211
1.14484948
1.14346958
1.14209577
1.14072691
1.13936413
1.13800519
1.13665220
1.13530537
1.13396238
1.13262424
1.13129223
1.12996516
1.12864399
1.12732572
1.12601335
1.12470803
1.12340668
1.12210909
1.12081853
1.11953194
1.11825214
1.11697538
1.11570550
1.11443949
1.11318034
1.11192413
1.11067486
1.10942846
1.10818797
1.10695427
1.10572356
1.10449962
1.10328066
1.10206460
1.10085628
1.09965086
1.09845237
1.09725670
1.09606880
1.09488383
1.09370478
1.09253135
1.09136201
1.09019837
1.08903864
1.08788469
1.08673643
1.08559217
1.08445367
1.08332001
1.08219016
1.08106707
1.07994872
1.07883436
1.07772564
1.07662273
1.07552275
1.07442937
1.07334089
1.07225801
1.07117816
1.07010400
1.06903551
1.06797269
1.06691205
1.06585880
1.06481033
1.06376665
1.06272765
1.06169267
1.06066332
1.05963958
1.05862053
1.05760632
1.05659679
1.05559285
1.05459211
1.05359768
1.05260809
1.05162317
1.05064380
1.04966917
1.04869848
1.04773334
1.04677371
1.04581804
1.04486787
1.04392089
1.04298018
1.04204420
1.04111363
1.04018786
1.03926604
1.03834961
1.03743872
1.03653171
1.03563016
1.03473264
1.03384048
1.03295448
1.03207244
1.03119444
1.03032177
1.02945379
1.02859050
1.02773189
1.02687866
1.02603011
1.02518623
1.02434695
1.02351379
1.02268391
1.02185931
1.02103944
1.02022423
1.01941361
1.01860897
1.01780837
1.01701236
1.01622099
1.01543434
1.01465354
1.01387674
1.01310393
1.01233639
1.01157475
1.01081709
1.01006343
1.00931502
1.00857184
1.00783327
1.00709864
1.00636989
1.00564515
1.00492495
1.00420941
1.00349960
1.00279326
1.00209321
1.00139658
1.00070460
1.00001772
0.99933543
0.99865771
0.99798514
0.99731663
0.99665370
0.99599434
0.99534005
0.99469080
0.99404564
0.99340610
0.99277058
0.99214009
0.99151316
0.99089228
0.99027497
0.98966318
0.98905546
0.98845274
0.98785410
0.98726045
0.98667132
0.98608722
0.98550719
0.98493213
0.98436158
0.98379555
0.98323451
0.98267705
0.98212544
0.98157792
0.98103490
0.98049683
0.97996238
0.97943327
0.97890913
0.97838857
0.97787340
0.97736268
0.97685606
0.97635430
0.97585744
0.97536426
0.97487635
0.97439330
0.97391432
0.97343941
0.97296975
0.97250455
0.97204381
0.97158714
0.97113531
0.97068827
0.97024571
0.96980760
0.96937356
0.96894430
0.96851986
0.96809982
0.96768421
0.96727307
0.96686598
0.96646403
0.96606647
0.96567333
0.96528460
0.96490029
0.96452071
0.96414554
0.96377418
0.96340783
0.96304615
0.96268860
0.96233574
0.96198728
0.96164318
0.96130350
0.96096846
0.96063755
0.96031131
0.95998942
0.95967193
0.95935905
0.95905029
0.95874618
0.95844641
0.95815101
0.95785998
0.95757354
0.95729147
0.95701375
0.95674061
0.95647159
0.95620714
0.95594703
0.95569106
0.95543962
0.95519275
0.95495001
0.95471198
0.95447808
0.95424853
0.95402329
0.95380239
0.95358598
0.95337407
0.95316631
0.95296284
0.95276369
0.95256902
0.95237881
0.95219275
0.95201098
0.95183352
0.95166065
0.95149192
0.95132734
0.95116745
0.95101159
0.95086002
0.95071297
0.95057008
0.95043146
0.95029713
0.95016728
0.95004150
0.94992018
0.94980302
0.94969013
0.94958167
0.94947731
0.94937728
0.94928158
0.94919005
0.94910292
0.94901989
0.94894124
0.94886676
0.94879646
0.94873057
0.94866881
0.94861137
0.94855812
0.94850913
0.94846433
0.94842382
0.94838746
0.94835537
0.94832748
0.94830381
0.94828437
0.94826911
0.94825807
0.94825122
0.94824858
0.94825014
0.94825588
0.94826582
0.94827996
0.94829826
0.94832077
0.94834742
0.94837825
0.94841331
0.94845248
0.94849579
0.94854335
0.94859504
0.94865084
0.94871086
0.94877499
0.94884327
0.94891565
0.94899231
0.94907299
0.94915775
0.94924672
0.94933992
0.94943710
0.94953842
0.94964388
0.94975356
0.94986728
0.94998503
0.95010691
0.95023291
0.95036325
0.95049739
0.95063576
0.95077813
0.95092461
0.95107518
0.95122988
0.95138855
0.95155159
0.95171847
0.95188944
0.95206451
0.95224352
0.95242678
0.95261397
0.95280527
0.95300063
0.95320008
0.95340343
0.95361104
0.95382256
0.95403814
0.95425762
0.95448134
0.95470895
0.95494080
0.95517654
0.95541632
0.95565997
0.95590789
0.95615964
0.95641545
0.95667530
0.95693918
0.95720712
0.95747888
0.95775446
0.95803429
0.95831816
0.95860581
0.95889774
0.95919347
0.95949321
0.95979670
0.96010450
0.96041603
0.96073188
0.96105144
0.96137504
0.96170208
0.96203367
0.96236900
0.96270863
0.96305168
0.96339871
0.96375005
0.96410535
0.96446408
0.96482708
0.96519408
0.96556473
0.96593937
0.96631831
0.96670094
0.96708717
0.96747772
0.96787227
0.96827007
0.96867221
0.96907797
0.96948800
0.96990204
0.97031930
0.97074122
0.97116639
0.97159588
0.97202932
0.97246595
0.97290724
0.97335179
0.97380063
0.97425301
0.97470972
0.97516956
0.97563374
0.97610147
0.97657391
0.97704908
0.97752896
0.97801192
0.97849969
0.97899048
0.97948565
0.97998387
0.98048682
0.98099285
0.98150322
0.98201705
0.98253473
0.98305680
0.98358186
0.98411127
0.98464411
0.98518083
0.98572191
0.98626597
0.98681387
0.98736660
0.98792225
0.98848134
0.98904522
0.98961249
0.99018318
0.99075818
0.99133659
0.99191836
0.99250450
0.99309444
0.99368777
0.99428495
0.99488598
0.99549134
0.99609954
0.99671158
0.99732751
0.99794723
0.99857128
0.99919818
0.99982940
1.00046391
1.00110224
1.00174389
1.00239043
1.00304024
1.00369335
1.00435022
1.00501097
1.00567494
1.00634325
1.00701484
1.00769024
1.00836944
1.00905238
1.00973979
1.01042979
1.01112419
1.01182178
1.01252317
1.01322772
1.01393668
1.01464880
1.01536476
1.01608445
1.01680791
1.01753515
1.01826559
1.01900038
1.01973706
1.02047881
1.02122425
1.02197353
1.02272584
1.02348198
1.02424188
1.02500546
1.02577287
1.02654335
1.02731690
1.02809487
1.02887659
1.02966205
1.03045125
1.03124350
1.03204019
1.03283857
1.03364201
1.03444919
1.03526010
1.03607409
1.03689109
1.03771245
1.03853754
1.03936641
1.04019754
1.04103304
1.04187232
1.04271456
1.04356126
1.04441084
1.04526495
1.04612125
1.04698201
1.04784646
1.04871308
1.04958491
1.05045968
1.05133743
1.05221956
1.05310460
1.05399410
1.05488657
1.05578185
1.05668168
1.05758430
1.05849147
1.05940143
1.06031514
1.06123243
1.06215265
1.06307734
1.06400406
1.06493599
1.06587009
1.06680851
1.06774982
1.06869562
1.06964347
1.07059648
1.07155161
1.07251114
1.07347346
1.07444026
1.07540908
1.07638229
1.07735827
1.07833796
1.07932206
1.08030900
1.08129947
1.08229365
1.08328967
1.08429188
1.08529513
1.08630287
1.08731423
1.08832829
1.08934595
1.09036803
1.09139289
1.09242053
1.09345341
1.09448824
1.09552656
1.09656848
1.09761398
1.09866316
1.09971489
1.10077115
1.10183014
1.10289261
1.10395780
1.10502742
1.10610071
1.10717662
1.10825599
1.10933806
1.11042465
1.11151384
1.11260844
1.11370475
1.11480363
1.11590704
1.11701311
1.11812363
1.11923670
1.12035431
1.12147447
1.12259717
1.12372441
1.12485428
1.12598759
1.12712453
1.12826388
1.12940788
1.13055428
1.13170533
1.13285878
1.13401482
1.13517541
1.13633941
1.13750599
1.13867609
1.13984969
1.14102681
1.14220637
1.14339050
1.14457707
1.14576714
1.14696071
1.14815778
1.14935846
1.15056036
1.15176683
1.15297690
1.15419034
1.15540727
1.15662671
1.15785061
1.15907590
1.16030577
1.16153900
1.16277471
1.16401500
1.16525765
1.16650265
1.16775211
1.16900516
1.17026167
1.17151937
1.17278166
1.17404855
1.17531776
1.17658824
1.17786435
1.17914275
1.18042576
1.18170886
1.18299760
1.18428978
1.18558435
1.18688224
1.18818368
1.18948737
1.19079556
1.19210729
1.19342008
1.19473855
1.19605938
1.19738243
1.19871010
1.20003878
1.20137328
1.20270999
1.20404890
1.20539243
1.20673816
1.20808850
1.20943993
1.21079709
1.21215396
1.21351792
1.21488170
1.21625122
1.21762178
1.21899809
1.22037418
1.22175726
1.22314011
1.22452884
1.22591832
1.22731382
1.22870890
1.23010862
1.23151299
1.23291818
1.23432928
1.23574120
1.23715649
1.23857641
1.23999842
1.24142378
1.24285250
1.24428341
1.24571884
1.24715632
1.24859597
1.25004145
1.25148779
1.25293734
1.25439036
1.25584791
1.25730628
1.25876931
1.26023435
1.26170391
1.26317561
1.26465063
1.26612898
1.26761065
1.26909430
1.27058127
1.27207155
1.27356515
1.27506343
1.27656230
1.27806461
1.27957010
1.28107889
1.28259098
1.28410790
1.28562522
1.28714598
1.28866989
1.29019724
1.29172774
1.29326168
1.29479751
1.29633663
1.29787889
1.29942457
1.30097496
1.30252721
1.30408133
1.30563872
1.30719939
1.30876333
1.31033054
1.31189959
1.31347191
1.31504893
1.31662778
1.31821003
1.31979251
1.32137983
1.32297171
1.32456554
1.32616248
1.32776282
1.32936626
1.33097163
1.33258024
1.33419343
1.33580853
1.33742390
1.33904548
1.34066881
1.34229686
1.34392666
1.34555969
1.34719445
1.34883243
1.35047514
1.35211957
1.35376874
1.35541674
1.35707083
1.35872814
1.36038729
1.36205104
1.36371494
1.36538372
1.36705557
1.36872770
1.37040611
1.37208603
1.37376930
1.37545422
1.37714389
1.37883660
1.38052955
1.38222724
1.38392812
1.38563062
1.38733788
1.38904675
1.39075895
1.39247560
1.39419101
1.39591418
1.39763592
1.39936386
1.40109497
1.40282606
1.40456207
1.40629949
1.40804184
1.40978413
1.41153264
1.41328125
1.41503463
1.41678938
1.41854907
1.42030866
1.42207465
1.42384054
1.42561120
1.42738336
1.42916031
1.43093876
1.43272035
1.43450508
1.43629129
1.43808229
1.43987327
1.44167053
1.44346926
1.44526962
1.44707460
1.44888104
1.45069076
1.45250360
1.45431939
1.45613678
1.45795880
1.45978241
1.46160913
1.46344066
1.46527190
1.46710574
1.46894488
1.47078713
1.47263078
1.47447581
1.47632736
1.47817858
1.48003289
1.48189046
1.48375094
1.48561624
1.48748117
1.48935091
1.49122218
1.49309634
1.49497551
1.49685409
1.49873766
1.50062256
1.50251035
1.50440138
1.50629548
1.50819265
1.51009447
1.51199600
1.51390059
1.51580824
1.51771895
1.51963271
1.52154774
1.52346582
1.52538875
1.52731293
1.52924015
1.53116881
1.53310213
1.53503686
1.53697627
1.53891690
1.54086076
1.54280565
1.54475557
1.54670652
1.54866251
1.55061952
1.55257974
1.55454115
1.55650742
1.55847653
1.56044351
1.56241866
1.56439516
1.56637283
1.56835537
1.57034091
1.57232762
1.57431733
1.57630837
1.57830408
1.58030094
1.58230266
1.58430570
1.58630967
1.58831870
1.59033054
1.59234537
1.59436150
1.59638043
1.59840253
1.60042761
1.60245549
1.60448275
1.60651678
1.60855189
1.61058807
1.61263085
1.61467297
1.61671825
1.61876804
1.62081907
1.62287133
1.62492828
1.62698821
1.62904916
1.63111500
1.63318187
1.63524995
1.63732273
1.63939671
1.64147539
1.64355703
1.64563790
1.64772544
1.64981220
1.65190386
1.65399453
1.65609188
1.65818842
1.66029185
1.66239425
1.66450157
1.66660984
1.66872283
1.67083516
1.67295222
1.67507020
1.67719510
1.67931692
1.68144566
1.68357532
1.68570810
1.68784158
1.68997797
1.69211949
1.69426170
1.69640884
