corrn_curve_quadratic
1.99245242
1.99104783
1.98964152
1.98823736
1.98683149
1.98542786
1.98402435
1.98262115
1.98121807
1.97981520
1.97841458
1.97701225
1.97561206
1.97421005
1.97281029
1.97141075
1.97001142
1.96861230
1.96721533
1.96581664
1.96442020
1.96302194
1.96162785
1.96023195
1.95883636
1.95744089
1.95604563
1.95465261
1.95325788
1.95186529
1.95047291
1.94908074
1.94768879
1.94629705
1.94490745
1.94351614
1.94212707
1.94073821
1.93934754
1.93795900
1.93657078
1.93518469
1.93379680
1.93240921
1.93102376
1.92963853
1.92825350
1.92686667
1.92548409
1.92409970
1.92271552
1.92133358
1.91994983
1.91856820
1.91718690
1.91580580
1.91442481
1.91304414
1.91166357
1.91028332
1.90890722
1.90752729
1.90614959
1.90477210
1.90339290
1.90201785
1.90064099
1.89926636
1.89788993
1.89651562
1.89514162
1.89376783
1.89239415
1.89102078
1.88964762
1.88827659
1.88690375
1.88553324
1.88416283
1.88279263
1.88142074
1.88005287
1.87868341
1.87731405
1.87594490
1.87457798
1.87321317
1.87184465
1.87047835
1.86911226
1.86774628
1.86638251
1.86501705
1.86365370
1.86229066
1.86092673
1.85956401
1.85820250
1.85683929
1.85547920
1.85411831
1.85275864
1.85139717
1.85003791
1.84867876
1.84731892
1.84596128
1.84460376
1.84324754
1.84189043
1.84053263
1.83917694
1.83782155
1.83646727
1.83511220
1.83375734
1.83240368
1.83105033
1.82969799
1.82834595
1.82699413
1.82564051
1.82429009
1.82293888
1.82158878
1.82023998
1.81889029
1.81754191
1.81619363
1.81484566
1.81349779
1.81215113
1.81080367
1.80945653
1.80811048
1.80676564
1.80542001
1.80407558
1.80273135
1.80138833
1.80004442
1.79870181
1.79736129
1.79601909
1.79467799
1.79333720
1.79199651
1.79065612
1.78931585
1.78797677
1.78663799
1.78529932
1.78396086
1.78262359
1.78128752
1.77995156
1.77861490
1.77727846
1.77594321
1.77460816
1.77327520
1.77194057
1.77060702
1.76927379
1.76794065
1.76660971
1.76527708
1.76394555
1.76261423
1.76128320
1.75995417
1.75862444
1.75729492
1.75596759
1.75463847
1.75331055
1.75198284
1.75065621
1.74932989
1.74800278
1.74667776
1.74535195
1.74402742
1.74270400
1.74137879
1.74005676
1.73873305
1.73740944
1.73608801
1.73476580
1.73344378
1.73212395
1.73080234
1.72948380
1.72816259
1.72684455
1.72552563
1.72420799
1.72288858
1.72157224
1.72025412
1.71893817
1.71762154
1.71630699
1.71499066
1.71367651
1.71236058
1.71104782
1.70973328
1.70842091
1.70710678
1.70579580
1.70448394
1.70317139
1.70186101
1.70054975
1.69923977
1.69793088
1.69662032
1.69531183
1.69400452
1.69269544
1.69138853
1.69008182
1.68877344
1.68746812
1.68616200
1.68485609
1.68355127
1.68224674
1.68094339
1.67963827
1.67833522
1.67703247
1.67573080
1.67442747
1.67312620
1.67182512
1.67052425
1.66922269
1.66792319
1.66662390
1.66532480
1.66402688
1.66272817
1.66142967
1.66013234
1.65883522
1.65753917
1.65624341
1.65494776
1.65365240
1.65235715
1.65106316
1.64976742
1.64847373
1.64718122
1.64588793
1.64459592
1.64330400
1.64201325
1.64072173
1.63943138
1.63814113
1.63685118
1.63556142
1.63427283
1.63298347
1.63169518
1.63040816
1.62912026
1.62783364
1.62654711
1.62526088
1.62397474
1.62269076
1.62140599
1.62012142
1.61883705
1.61755384
1.61627083
1.61498705
1.61370443
1.61242396
1.61114271
1.60986155
1.60858069
1.60730003
1.60601946
1.60474201
1.60346193
1.60218390
1.60090518
1.59962657
1.59835106
1.59707381
1.59579685
1.59451998
1.59324525
1.59196975
1.59069444
1.58942117
1.58814722
1.58687250
1.58560078
1.58432742
1.58305512
1.58178408
1.58051217
1.57924055
1.57797000
1.57669964
1.57542957
1.57416057
1.57289080
1.57162315
1.57035473
1.56908554
1.56781944
1.56655160
1.56528579
1.56401931
1.56275398
1.56148788
1.56022285
1.55895907
1.55769442
1.55643103
1.55516677
1.55390463
1.55264182
1.55138007
1.55011948
1.54885714
1.54759693
1.54633595
1.54507613
1.54381650
1.54255802
1.54129965
1.54003963
1.53878269
1.53752402
1.53626738
1.53501189
1.53375379
1.53249868
1.53124377
1.52998721
1.52873364
1.52747930
1.52622428
1.52497129
1.52371935
1.52246491
1.52121345
1.51996208
1.51871100
1.51745915
1.51620846
1.51495882
1.51370947
1.51245838
1.51121027
1.50996139
1.50871376
1.50746623
1.50621696
1.50497086
1.50372390
1.50247808
1.50123246
1.49998798
1.49874178
1.49749672
1.49625282
1.49500900
1.49376644
1.49252310
1.49128082
1.49003882
1.48879691
1.48755625
1.48631377
1.48507348
1.48383329
1.48259329
1.48135358
1.48011491
1.47887644
1.47763815
1.47640005
1.47516310
1.47392634
1.47268976
1.47145328
1.47021708
1.46898203
1.46774802
1.46651430
1.46527972
1.46404542
1.46281216
1.46157919
1.46034632
1.45911363
1.45788208
1.45665082
1.45542061
1.45418962
1.45295978
1.45172917
1.45049971
1.44927043
1.44804315
1.44681520
1.44558648
1.44435881
1.44313142
1.44190603
1.44067997
1.43945305
1.43822736
1.43700367
1.43577826
1.43455399
1.43332990
1.43210696
1.43088420
1.42966077
1.42843924
1.42721703
1.42599502
1.42477509
1.42355431
1.42233285
1.42111443
1.41989420
1.41867425
1.41745630
1.41623767
1.41502104
1.41380269
1.41258462
1.41136854
1.41015169
1.40893693
1.40772046
1.40650607
1.40529092
1.40407690
1.40286211
1.40164941
1.40043585
1.39922352
1.39801042
1.39679931
1.39558658
1.39437584
1.39316443
1.39195406
1.39074301
1.38953396
1.38832603
1.38711545
1.38590789
1.38469862
1.38349143
1.38228537
1.38107665
1.37987096
1.37866355
1.37745813
1.37625393
1.37504803
1.37384316
1.37263951
1.37143500
1.37023172
1.36902853
1.36782646
1.36662373
1.36542203
1.36422051
1.36301823
1.36181802
1.36061800
1.35941816
1.35821850
1.35701807
1.35581972
1.35462155
1.35342442
1.35222661
1.35102804
1.34983145
1.34863514
1.34743891
1.34624380
1.34504803
1.34385235
1.34265779
1.34146351
1.34027025
1.33907624
1.33788335
1.33669064
1.33549905
1.33430670
1.33311538
1.33192434
1.33073347
1.32954364
1.32835219
1.32716281
1.32597352
1.32478450
1.32359557
1.32240785
1.32122116
1.32003371
1.31884644
1.31766029
1.31647432
1.31528768
1.31410292
1.31291749
1.31173224
1.31054810
1.30936415
1.30818038
1.30699679
1.30581516
1.30463286
1.30345065
1.30226872
1.30108781
1.29990623
1.29872568
1.29754624
1.29636614
1.29518706
1.29400722
1.29282850
1.29165183
1.29047347
1.28929528
1.28811821
1.28694216
1.28576545
1.28458985
1.28341350
1.28223910
1.28106403
1.27988915
1.27871622
1.27754160
1.27636818
1.27519579
1.27402263
1.27285069
1.27167966
1.27050714
1.26933563
1.26816617
1.26699502
1.26582591
1.26465605
1.26348627
1.26231770
1.26114930
1.25998192
1.25881388
1.25764694
1.25647916
1.25531258
1.25414702
1.25297986
1.25181559
1.25064962
1.24948570
1.24832018
1.24715745
1.24599321
1.24482999
1.24366779
1.24250492
1.24134316
1.24018065
1.23902018
1.23785802
1.23669780
1.23553869
1.23437798
1.23321839
1.23205887
1.23090056
1.22974233
1.22858334
1.22742639
1.22626970
1.22511217
1.22395575
1.22280042
1.22164342
1.22048845
1.21933365
1.21817903
1.21702365
1.21587021
1.21471704
1.21356395
1.21241021
1.21125849
1.21010685
1.20895539
1.20780419
1.20665215
1.20550131
1.20435147
1.20320181
1.20205232
1.20090208
1.19975386
1.19860489
1.19745703
1.19631026
1.19516274
1.19401622
1.19286905
1.19172205
1.19057615
1.18943043
1.18828571
1.18714116
1.18599688
1.18485268
1.18370957
1.18256581
1.18142306
1.18028047
1.17913806
1.17799675
1.17685477
1.17571371
1.17457292
1.17343229
1.17229277
1.17115249
1.17001330
1.16887420
1.16773536
1.16659762
1.16546088
1.16432339
1.16318616
1.16204901
1.16091213
1.15977625
1.15864054
1.15750509
1.15637065
1.15523637
1.15410135
1.15296742
1.15183367
1.15070008
1.14956850
1.14843609
1.14730393
1.14617195
1.14504189
1.14391025
1.14277961
1.14164832
1.14051986
1.13938982
1.13825987
1.13713109
1.13600331
1.13487479
1.13374735
1.13262009
1.13149299
1.13036607
1.12924023
1.12811365
1.12698816
1.12586375
1.12473859
1.12361361
1.12248962
1.12136589
1.12024316
1.11911977
1.11799738
1.11687433
1.11575227
1.11463131
1.11350877
1.11238905
1.11126768
1.11014830
1.10902727
1.10790914
1.10678936
1.10567067
1.10455214
1.10343469
1.10231559
1.10119930
1.10008145
1.09896559
1.09784981
1.09673247
1.09561794
1.09450185
1.09338766
1.09227364
1.09115805
1.09004528
1.08893085
1.08781841
1.08670614
1.08559231
1.08448120
1.08336944
1.08225784
1.08114733
1.08003698
1.07892589
1.07781588
1.07670685
1.07559809
1.07448767
1.07338006
1.07227170
1.07116452
1.07005559
1.06894956
1.06784288
1.06673627
1.06563074
1.06452356
1.06341928
1.06231425
1.06120939
1.06010560
1.05900198
1.05789672
1.05679434
1.05569113
1.05458909
1.05348721
1.05238541
1.05128387
1.05018240
1.04908210
1.04798006
1.04688009
1.04578110
1.04468137
1.04358271
1.04248341
1.04138509
1.04028783
1.03918984
1.03809283
1.03699527
1.03589859
1.03480217
1.03370681
1.03261072
1.03151561
1.03042076
1.02932607
1.02823327
1.02713882
1.02604553
1.02495232
1.02385936
1.02276648
1.02167466
1.02058220
1.01949072
1.01840111
1.01731005
1.01621987
1.01512914
1.01403938
1.01294970
1.01186208
1.01077282
1.00968462
1.00859650
1.00750863
1.00642174
1.00533511
1.00424764
1.00316134
1.00207600
1.00099002
0.99990502
0.99882108
0.99773640
0.99665099
0.99556754
0.99448426
0.99340114
0.99231818
0.99123629
0.99015366
0.98907299
0.98799069
0.98690936
0.98582918
0.98474826
0.98366743
0.98258864
0.98150902
0.98043047
0.97935127
0.97827394
0.97719507
0.97611806
0.97504033
0.97396275
0.97288624
0.97180988
0.97073459
0.96965767
0.96858359
0.96750789
0.96643414
0.96536047
0.96428526
0.96321289
0.96213881
0.96106587
0.95999310
0.95892129
0.95784965
0.95677736
0.95570694
0.95463488
0.95356487
0.95249493
0.95142426
0.95035554
0.94928698
0.94821679
0.94714855
0.94608137
0.94501256
0.94394561
0.94287891
0.94181059
0.94074510
0.93967880
0.93861364
0.93754676
0.93648192
0.93541805
0.93435344
0.93328819
0.93222480
0.93116156
0.93009858
0.92903656
0.92797292
0.92691122
0.92584968
0.92478830
0.92372708
0.92266682
0.92160593
0.92054519
0.91948550
0.91842597
0.91736741
0.91630820
0.91524995
0.91419196
0.91313403
0.91207715
0.91101964
0.90996308
0.90890668
0.90785053
0.90679534
0.90573853
0.90468366
0.90362895
0.90257528
0.90152089
0.90046754
0.89941426
0.89836123
0.89730836
0.89625565
0.89520301
0.89415151
0.89310016
0.89204888
0.89099785
0.88994689
0.88889698
0.88784820
0.88679860
0.88574916
0.88469988
0.88365164
0.88260365
0.88155485
0.88050877
0.87946117
0.87841461
0.87736732
0.87632107
0.87527587
0.87423074
0.87318497
0.87214024
0.87109647
0.87005205
0.86900771
0.86796361
0.86692135
0.86587837
0.86483562
0.86379384
0.86275132
0.86170985
0.86066941
0.85962825
0.85858645
0.85754728
0.85650668
0.85546695
0.85442834
0.85338900
0.85235150
0.85131247
0.85027361
0.84923666
0.84819890
0.84716306
0.84612571
0.84509018
0.84405314
0.84301704
0.84198286
0.84094717
0.83991242
0.83887783
0.83784428
0.83681000
0.83577676
0.83474367
0.83371162
0.83267973
0.83164623
0.83061544
0.82958313
0.82855274
0.82752074
0.82649145
0.82546143
0.82443078
0.82340196
0.82237337
0.82134310
0.82031562
0.81928662
0.81825857
0.81723155
0.81620381
0.81517710
0.81415055
0.81312503
0.81209791
0.81107270
0.81004764
0.80902186
0.80799711
0.80697330
0.80594974
0.80492546
0.80390211
0.80287901
0.80185685
0.80083485
0.79981134
0.79878964
0.79776819
0.79674767
0.79572731
0.79470711
0.79368540
0.79266550
0.79164654
0.79062704
0.78960839
0.78858998
0.78757172
0.78655449
0.78553655
0.78451954
0.78350102
0.78248441
0.78146873
0.78045242
0.77943705
0.77842105
0.77740599
0.77639195
0.77537728
0.77436267
0.77334909
0.77233566
0.77132248
0.77030935
0.76929726
0.76828444
0.76727430
0.76626266
0.76525117
0.76423984
0.76322952
0.76221841
0.76120840
0.76019854
0.75918962
0.75818007
0.75717232
0.75616395
0.75515563
0.75414747
0.75313955
0.75213256
0.75112660
0.75011991
0.74911338
0.74810709
0.74710251
0.74609730
0.74509146
0.74408647
0.74308345
0.74207884
0.74107526
0.74007096
0.73906932
0.73806619
0.73706313
0.73606203
0.73506013
0.73405761
0.73305774
0.73205630
0.73105509
0.73005568
0.72905556
0.72805558
0.72705671
0.72605703
0.72505924
0.72406073
0.72306151
0.72206495
0.72106689
0.72007072
0.71907296
0.71807709
0.71708041
0.71608570
0.71508941
0.71409491
0.71309892
0.71210472
0.71110989
0.71011686
0.70912224
0.70812951
0.70713614
0.70614371
0.70515056
0.70415842
0.70316643
0.70217545
0.70118462
0.70019308
0.69920255
0.69821303
0.69722194
0.69623263
0.69524270
0.69425378
0.69326578
0.69227630
0.69128859
0.69030113
0.68931286
0.68832656
0.68733945
0.68635335
0.68536663
0.68438083
0.68339518
0.68241054
0.68142432
0.68043998
0.67945578
0.67847173
0.67748697
0.67650407
0.67552124
0.67453864
0.67355619
0.67257303
0.67159079
0.67060964
0.66962856
0.66864770
0.66766691
0.66668635
0.66570671
0.66472560
0.66374625
0.66276706
0.66178801
0.66080996
0.65983121
0.65885346
0.65787586
0.65689840
0.65592110
0.65494479
0.65396863
0.65299177
0.65201667
0.65104096
0.65006539
0.64909074
0.64811546
0.64714119
0.64616697
0.64519376
0.64421993
0.64324701
0.64227347
0.64130084
0.64032922
0.63935774
0.63838641
0.63741437
0.63644341
0.63547252
0.63450254
0.63353194
0.63256319
0.63159374
0.63062442
0.62965518
0.62868616
0.62771729
0.62675018
0.62578245
0.62481487
0.62384734
0.62288167
0.62191453
0.62094829
0.61998229
0.61901720
0.61805225
0.61708660
0.61612279
0.61515828
0.61419307
0.61322893
0.61226647
0.61130339
0.61033961
0.60937767
0.60841502
0.60745414
0.60649178
0.60552957
0.60456997
0.60360805
0.60264873
0.60168795
0.60072723
0.59976835
0.59880885
0.59785026
0.59689096
0.59593350
0.59497458
0.59401742
0.59305954
0.59210267
0.59114508
0.59018934
0.58923204
0.58827659
0.58732043
0.58636518
0.58541015
0.58445527
0.58350130
0.58254670
0.58159301
0.58063871
0.57968615
0.57873298
0.57777986
0.57682774
0.57587500
0.57492316
0.57397231
0.57301999
0.57206943
0.57111901
0.57016789
0.56921860
0.56826860
0.56731951
0.56636981
0.56542109
0.56447251
0.56352323
0.56257570
0.56162840
0.56068115
0.55973413
0.55878641
0.55784043
0.55689384
0.55594815
0.55500260
0.55405643
0.55311117
0.55216689
0.55122275
0.55027876
0.54933490
0.54839043
0.54744686
0.54650419
0.54556099
0.54461860
0.54367728
0.54273526
0.54179338
0.54085240
0.53991165
0.53897095
0.53803048
0.53709015
0.53615072
0.53521067
0.53427152
0.53333252
0.53239373
0.53145585
0.53051726
0.52957966
0.52864219
0.52770487
0.52676778
0.52583149
0.52489467
0.52395867
0.52302289
0.52208725
0.52115176
0.52021640
0.51928278
0.51834854
0.51741444
0.51648040
0.51554658
0.51461375
0.51368180
0.51274916
0.51181674
0.51088438
0.50995216
0.50902175
0.50809073
0.50715893
0.50622811
0.50529742
0.50436855
0.50343898
0.50250872
0.50158026
0.50065111
0.49972294
0.49879407
0.49786692
0.49693833
0.49601072
0.49508483
0.49415749
0.49323021
0.49230482
0.49137865
0.49045345
0.48952765
0.48860190
0.48767795
0.48675340
0.48582973
0.48490537
0.48398115
0.48305790
0.48213478
0.48121264
0.48028898
0.47936795
0.47844539
0.47752381
0.47660228
0.47568180
0.47475980
0.47384035
0.47291945
0.47199953
0.47107966
0.47016077
0.46924043
0.46832264
0.46740423
0.46648506
0.46556768
0.46464961
0.46373259
0.46281563
0.46189797
0.46098211
0.46006474
0.45914915
0.45823371
0.45731757
0.45640315
0.45548894
0.45457405
0.45365929
0.45274542
0.45183176
0.45091825
0.45000479
0.44909237
0.44818001
0.44726705
0.44635496
0.44544384
0.44453203
0.44362044
0.44270973
0.44179916
0.44088872
0.43997925
0.43906909
0.43815907
0.43725000
0.43634108
0.43543229
0.43452447
0.43361678
0.43270832
0.43180007
0.43089279
0.42998639
0.42907939
0.42817334
0.42726735
0.42636149
0.42545586
0.42455027
0.42364565
0.42274042
0.42183607
0.42093186
0.42002786
0.41912474
0.41822094
0.41731809
0.41641538
0.41551280
0.41461036
0.41370806
0.41280663
0.41190459
0.41100352
0.41010258
0.40920334
0.40830267
0.40740205
0.40650248
0.40560295
0.40470365
0.40380440
0.40290536
0.40200802
0.40111000
0.40021219
0.39931443
0.39841681
0.39752015
0.39662362
0.39572722
0.39483014
0.39393401
0.39303966
0.39214381
0.39124891
0.39035332
0.38945942
0.38856492
0.38767138
0.38677789
0.38588461
0.38499065
0.38409838
0.38320551
0.38231351
0.38142164
0.38052999
0.37963757
0.37874692
0.37785567
0.37696603
0.37607504
0.37518411
0.37429495
0.37340511
0.37251703
0.37162745
0.37073801
0.36985025
0.36896116
0.36807367
0.36718557
0.36629917
0.36541134
0.36452528
0.36363772
0.36275185
0.36186537
0.36098058
0.36009429
0.35920984
0.35832545
0.35743955
0.35655624
0.35567151
0.35478765
0.35390473
0.35302032
0.35213767
0.35125434
0.35037277
0.34949052
0.34860840
0.34772641
0.34684610
0.34596357
0.34508361
0.34420288
0.34332237
0.34244199
0.34156248
0.34068391
0.33980393
0.33892489
0.33804671
0.33716867
0.33628922
0.33541144
0.33453461
0.33365709
0.33277898
0.33190270
0.33102640
0.33015022
0.32927499
0.32839908
0.32752249
0.32664765
0.32577286
0.32489829
0.32402384
0.32315026
0.32227608
0.32140284
0.32052965
0.31965586
0.31878293
0.31791022
0.31703836
0.31616672
0.31529513
0.31442367
0.31355234
0.31268122
0.31181096
0.31094002
0.31007002
0.30920015
0.30833041
0.30746161
0.30659214
0.30572360
0.30485519
0.30398683
0.30311869
0.30225148
0.30138432
0.30051737
0.29964975
0.29878298
0.29791642
0.29705072
0.29618442
0.29531979
0.29445448
0.29358938
0.29272433
0.29185941
0.29099469
0.29013165
0.28926792
0.28840432
0.28754086
0.28667752
0.28581593
0.28495285
0.28409071
0.28322869
0.28236753
0.28150578
0.28064496
0.27978419
0.27892363
0.27806319
0.27720361
0.27634344
0.27548331
0.27462493
0.27376594
0.27290701
0.27204901
0.27119041
0.27033186
0.26947505
0.26861684
0.26776029
0.26690306
0.26604596
0.26519059
0.26433375
0.26347856
0.26262278
0.26176792
0.26091240
0.26005780
0.25920325
0.25834971
0.25749470
0.25664134
0.25578738
0.25493508
0.25408138
0.25322933
0.25237589
0.25152410
0.25067171
0.24982097
0.24896957
0.24811828
0.24726713
0.24641618
0.24556609
0.24471683
0.24386627
0.24301656
0.24216769
0.24131823
0.24046969
0.23962129
0.23877301
0.23792478
0.23707755
0.23622885
0.23538260
0.23453576
