corrn_curve_quadratic
1.60872819
1.60799532
1.60726123
1.60652793
1.60579341
1.60505975
1.60432582
1.60359173
1.60285738
1.60212281
1.60138910
1.60065417
1.59992003
1.59918462
1.59845007
1.59771530
1.59698032
1.59624513
1.59551075
1.59477514
1.59404038
1.59330435
1.59257019
1.59183475
1.59109915
1.59036330
1.58962723
1.58889202
1.58815558
1.58741995
1.58668411
1.58594806
1.58521180
1.58447533
1.58373967
1.58300278
1.58226676
1.58153052
1.58079300
1.58005630
1.57931943
1.57858338
1.57784605
1.57710856
1.57637188
1.57563499
1.57489790
1.57415952
1.57342308
1.57268536
1.57194743
1.57121037
1.57047202
1.56973449
1.56899681
1.56825892
1.56752076
1.56678245
1.56604388
1.56530516
1.56456833
1.56382913
1.56309081
1.56235228
1.56161252
1.56087465
1.56013550
1.55939723
1.55865766
1.55791891
1.55718002
1.55644091
1.55570155
1.55496203
1.55422230
1.55348340
1.55274321
1.55200395
1.55126443
1.55052470
1.54978374
1.54904463
1.54830434
1.54756379
1.54682303
1.54608315
1.54534410
1.54460273
1.54386223
1.54312154
1.54238058
1.54164050
1.54089918
1.54015870
1.53941806
1.53867662
1.53793552
1.53719476
1.53645276
1.53571213
1.53497076
1.53422972
1.53348739
1.53274595
1.53200425
1.53126185
1.53052034
1.52977857
1.52903720
1.52829502
1.52755215
1.52681011
1.52606792
1.52532603
1.52458338
1.52384053
1.52309802
1.52235536
1.52161294
1.52087037
1.52012760
1.51938352
1.51864089
1.51789751
1.51715441
1.51641172
1.51566823
1.51492513
1.51418178
1.51343828
1.51269452
1.51195111
1.51120694
1.51046263
1.50971861
1.50897494
1.50823052
1.50748645
1.50674217
1.50599824
1.50525351
1.50450918
1.50376570
1.50302096
1.50227653
1.50153194
1.50078710
1.50004211
1.49929687
1.49855198
1.49780694
1.49706165
1.49631615
1.49557101
1.49482622
1.49408117
1.49333543
1.49258948
1.49184389
1.49109809
1.49035315
1.48960696
1.48886106
1.48811502
1.48736873
1.48662334
1.48587670
1.48513036
1.48438382
1.48363714
1.48289125
1.48214467
1.48139788
1.48065201
1.47990483
1.47915800
1.47841098
1.47766426
1.47691739
1.47616977
1.47542300
1.47467548
1.47392838
1.47318158
1.47243346
1.47168682
1.47093892
1.47019077
1.46944353
1.46869554
1.46794735
1.46720007
1.46645149
1.46570432
1.46495534
1.46420783
1.46345952
1.46271162
1.46196240
1.46121461
1.46046550
1.45971731
1.45896843
1.45822041
1.45747107
1.45672265
1.45597292
1.45522467
1.45447511
1.45372647
1.45297650
1.45222803
1.45147874
1.45072875
1.44997969
1.44922981
1.44848036
1.44773121
1.44698080
1.44623126
1.44548209
1.44473160
1.44398204
1.44323228
1.44248125
1.44173167
1.44098132
1.44023078
1.43948055
1.43873018
1.43798018
1.43722885
1.43647840
1.43572782
1.43497754
1.43422600
1.43347534
1.43272448
1.43197343
1.43122167
1.43047079
1.42971972
1.42896845
1.42821756
1.42746590
1.42671405
1.42596258
1.42521090
1.42445955
1.42370805
1.42295631
1.42220443
1.42145229
1.42070059
1.41994756
1.41919541
1.41844364
1.41769110
1.41693900
1.41618665
1.41543467
1.41468193
1.41392957
1.41317695
1.41242420
1.41167126
1.41091869
1.41016536
1.40941235
1.40865977
1.40790637
1.40715341
1.40640020
1.40564685
1.40489326
1.40414061
1.40338720
1.40263360
1.40187980
1.40112639
1.40037278
1.39961841
1.39886441
1.39811137
1.39735757
1.39660352
1.39584933
1.39509495
1.39434032
1.39358722
1.39283227
1.39207821
1.39132345
1.39056843
1.38981495
1.38906013
1.38830517
1.38754997
1.38679572
1.38604071
1.38528551
1.38453121
1.38377620
1.38302042
1.38226613
1.38151055
1.38075529
1.38000048
1.37924485
1.37848908
1.37773364
1.37697801
1.37622225
1.37546682
1.37471062
1.37395538
1.37319938
1.37244261
1.37168739
1.37093082
1.37017515
1.36941878
1.36866280
1.36790604
1.36714962
1.36639365
1.36563685
1.36488050
1.36412332
1.36336711
1.36261019
1.36185361
1.36109741
1.36033987
1.35958330
1.35882595
1.35806900
1.35731187
1.35655512
1.35579813
1.35503984
1.35428311
1.35352503
1.35276787
1.35201110
1.35125245
1.35049531
1.34973798
1.34897935
1.34822222
1.34746432
1.34670571
1.34594803
1.34519067
1.34443150
1.34367383
1.34291592
1.34215788
1.34139906
1.34064064
1.33988257
1.33912436
1.33836480
1.33760674
1.33684792
1.33608955
1.33533093
1.33457096
1.33381261
1.33305344
1.33229466
1.33153570
1.33077714
1.33001722
1.32925770
1.32849858
1.32773921
1.32698031
1.32622063
1.32546129
1.32470183
1.32394212
1.32318287
1.32242220
1.32166258
1.32090272
1.32014267
1.31938250
1.31862266
1.31786265
1.31710245
1.31634206
1.31558207
1.31482191
1.31406155
1.31330096
1.31254023
1.31177991
1.31101994
1.31025984
1.30949891
1.30873786
1.30797714
1.30721631
1.30645523
1.30569397
1.30493311
1.30417213
1.30341149
1.30265008
1.30188908
1.30112731
1.30036594
1.29960438
1.29884377
1.29808244
1.29732034
1.29655858
1.29579670
1.29503577
1.29427411
1.29351162
1.29274960
1.29198853
1.29122608
1.29046405
1.28970183
1.28894002
1.28817803
1.28741533
1.28665351
1.28589097
1.28512825
1.28436653
1.28360398
1.28284071
1.28207905
1.28131595
1.28055273
1.27979046
1.27902747
1.27826543
1.27750202
1.27673848
1.27597590
1.27521253
1.27445018
1.27368646
1.27292374
1.27216025
1.27139717
1.27063332
1.26987047
1.26910679
1.26834359
1.26757961
1.26681658
1.26605223
1.26528884
1.26452473
1.26376098
1.26299651
1.26223299
1.26146990
1.26070482
1.25994136
1.25917653
1.25841271
1.25764931
1.25688393
1.25612018
1.25535504
1.25459086
1.25382716
1.25306208
1.25229736
1.25153312
1.25076804
1.25000345
1.24923861
1.24847420
1.24770906
1.24694429
1.24617933
1.24541360
1.24464889
1.24388400
1.24311893
1.24235368
1.24158765
1.24082265
1.24005747
1.23929265
1.23852711
1.23776079
1.23699543
1.23622996
1.23546425
1.23469896
1.23393295
1.23316671
1.23240089
1.23163495
1.23086937
1.23010302
1.22933709
1.22857098
1.22780530
1.22703884
1.22627274
1.22550653
1.22474014
1.22397412
1.22320676
1.22244044
1.22167389
1.22090722
1.22014030
1.21937388
1.21860783
1.21784100
1.21707398
1.21630740
1.21554064
1.21477315
1.21400659
1.21323930
1.21247183
1.21170479
1.21093758
1.21017019
1.20940262
1.20863604
1.20786873
1.20710118
1.20633352
1.20556622
1.20479821
1.20403056
1.20326335
1.20249542
1.20172786
1.20095951
1.20019160
1.19942473
1.19865646
1.19788802
1.19712002
1.19635239
1.19558403
1.19481611
1.19404740
1.19327968
1.19251123
1.19174261
1.19097497
1.19020594
1.18943741
1.18866925
1.18790030
1.18713185
1.18636372
1.18559431
1.18482528
1.18405729
1.18328791
1.18251958
1.18175046
1.18098111
1.18021226
1.17944323
1.17867458
1.17790521
1.17713627
1.17636649
1.17559720
1.17482830
1.17405805
1.17328942
1.17251938
1.17175039
1.17098007
1.17021129
1.16944123
1.16867156
1.16790226
1.16713224
1.16636266
1.16559229
1.16482298
1.16405226
1.16328254
1.16251327
1.16174265
1.16097247
1.16020206
1.15943216
1.15866202
1.15789110
1.15712123
1.15635126
1.15558043
1.15481005
1.15404011
1.15326877
1.15249849
1.15172804
1.15095742
1.15018600
1.14941559
1.14864507
1.14787432
1.14710283
1.14633242
1.14556177
1.14479095
1.14402002
1.14324824
1.14247696
1.14170608
1.14093502
1.14016379
1.13939177
1.13862082
1.13784908
1.13707779
1.13630695
1.13553532
1.13476407
1.13399210
1.13321995
1.13244826
1.13167639
1.13090492
1.13013327
1.12936152
1.12858953
1.12781800
1.12704574
1.12627386
1.12550182
1.12472960
1.12395784
1.12318535
1.12241319
1.12164092
1.12086848
1.12009649
1.11932371
1.11855139
1.11777883
1.11700617
1.11623396
1.11546215
1.11468954
1.11391682
1.11314387
1.11237082
1.11159816
1.11082533
1.11005239
1.10927985
1.10850714
1.10773364
1.10696059
1.10618737
1.10541399
1.10464169
1.10386853
1.10309527
1.10232184
1.10154943
1.10077566
1.10000229
1.09922818
1.09845573
1.09768192
1.09690787
1.09613435
1.09536123
1.09458731
1.09381385
1.09304022
1.09226643
1.09149247
1.09071897
1.08994467
1.08917083
1.08839746
1.08762329
1.08684895
1.08607502
1.08530098
1.08452734
1.08375296
1.08297899
1.08220428
1.08142997
1.08065612
1.07988091
1.07910737
1.07833239
1.07755851
1.07678320
1.07600962
1.07523461
1.07446007
1.07368536
1.07291111
1.07213543
1.07136143
1.07058605
1.06981178
1.06903727
1.06826140
1.06748719
1.06671162
1.06593708
1.06516238
1.06438631
1.06361192
1.06283608
1.06206136
1.06128646
1.06051020
1.05973554
1.05896015
1.05818460
1.05740952
1.05663427
1.05585822
1.05508264
1.05430746
1.05353219
1.05275548
1.05198045
1.05120462
1.05042932
1.04965252
1.04887747
1.04810168
1.04732566
1.04655012
1.04577313
1.04499790
1.04422186
1.04344566
1.04266993
1.04189403
1.04111670
1.04034112
1.03956467
1.03878876
1.03801269
1.03723639
1.03645999
1.03568336
1.03490727
1.03412967
1.03335326
1.03257725
1.03180045
1.03102412
1.03024705
1.02947039
1.02869421
1.02791723
1.02714066
1.02636341
1.02558652
1.02480952
1.02403301
1.02325569
1.02247878
1.02170178
1.02092461
1.02014850
1.01937094
1.01859393
1.01781669
1.01703936
1.01626179
1.01548471
1.01470688
1.01392948
1.01315313
1.01237546
1.01159815
1.01082015
1.01004258
1.00926478
1.00848817
1.00771011
1.00693253
1.00615473
1.00537683
1.00459934
1.00382176
1.00304331
1.00226541
1.00148793
1.00070971
0.99993190
0.99915458
0.99837645
0.99759752
0.99681972
0.99604175
0.99526363
0.99448534
0.99370754
0.99292893
0.99215146
0.99137253
0.99059402
0.98981607
0.98903730
0.98825831
0.98748052
0.98670186
0.98592369
0.98514477
0.98436692
0.98358768
0.98280952
0.98203054
0.98125141
0.98047276
0.97969395
0.97891564
0.97813586
0.97735788
0.97657843
0.97580013
0.97502160
0.97424167
0.97346354
0.97268388
0.97190478
0.97112552
0.97034668
0.96956769
0.96878795
0.96800929
0.96722916
0.96645025
0.96567111
0.96489116
0.96411236
0.96333339
0.96255297
0.96177369
0.96099490
0.96021465
0.95943549
0.95865622
0.95787550
0.95709657
0.95631677
0.95553753
0.95475676
0.95397720
0.95319807
0.95241814
0.95163745
0.95085785
0.95007809
0.94929824
0.94851882
0.94773793
0.94695820
0.94617831
0.94539826
0.94461805
0.94383827
0.94305775
0.94227707
0.94149689
0.94071655
0.93993664
0.93915599
0.93837577
0.93759546
0.93681492
0.93603489
0.93525411
0.93447376
0.93369325
0.93291266
0.93213249
0.93135086
0.93057039
0.92978976
0.92900963
0.92822868
0.92744824
0.92666758
0.92588682
0.92510591
0.92432484
0.92354355
0.92276283
0.92198196
0.92120086
0.92041967
0.91963826
0.91885735
0.91807702
0.91729580
0.91651442
0.91573289
0.91495187
0.91417075
0.91338876
0.91260852
0.91182687
0.91104573
0.91026377
0.90948232
0.90870137
0.90792021
0.90713829
0.90635688
0.90557591
0.90479419
0.90401224
0.90323021
0.90244929
0.90166754
0.90088571
0.90010432
0.89932211
0.89854041
0.89775922
0.89697721
0.89619445
0.89541339
0.89463099
0.89384896
0.89306750
0.89228523
0.89150407
0.89072149
0.88993876
0.88915720
0.88837476
0.88759349
0.88681081
0.88602923
0.88524624
0.88446369
0.88368232
0.88289953
0.88211719
0.88133470
0.88055271
0.87976991
0.87898762
0.87820518
0.87742325
0.87664117
0.87585760
0.87507581
0.87429260
0.87351058
0.87272706
0.87194533
0.87116278
0.87037947
0.86959728
0.86881501
0.86803118
0.86724920
0.86646580
0.86568285
0.86490041
0.86411715
0.86333441
0.86255152
0.86176915
0.86098528
0.86020260
0.85941977
0.85863612
0.85785298
0.85707030
0.85628753
0.85550394
0.85472080
0.85393758
0.85315480
0.85237188
0.85158753
0.85080430
0.85002099
0.84923813
0.84845513
0.84767197
0.84688738
0.84610392
0.84532091
0.84453721
0.84375390
0.84297050
0.84218696
0.84140393
0.84062008
0.83983669
0.83905187
0.83826824
0.83748507
0.83670114
0.83591767
0.83513344
0.83434966
0.83356641
0.83278241
0.83199818
0.83121448
0.83043063
0.82964670
0.82886254
0.82807892
0.82729447
0.82651182
0.82572774
0.82494352
0.82415914
0.82337529
0.82259055
0.82180640
0.82102210
0.82023826
0.81945366
0.81867020
0.81788597
0.81710154
0.81631695
0.81553228
0.81474807
0.81396439
0.81317988
0.81239522
0.81161048
0.81082682
0.81004239
0.80925720
0.80847241
0.80768889
0.80690387
0.80611938
0.80533406
0.80455056
0.80376562
0.80298047
0.80219659
0.80141182
0.80062628
0.79984257
0.79905736
0.79827206
0.79748790
0.79670292
0.79591779
0.79513326
0.79434783
0.79356362
0.79277857
0.79199270
0.79120866
0.79042317
0.78963890
0.78885312
0.78806855
0.78728309
0.78649891
0.78571322
0.78492867
0.78414269
0.78335785
0.78257225
0.78178780
0.78100184
0.78021710
0.77943159
0.77864656
0.77786069
0.77707536
0.77628988
0.77550494
0.77471985
0.77393393
0.77314855
0.77236370
0.77157735
0.77079214
0.77000617
0.76922074
0.76843578
0.76764937
0.76686412
0.76607879
0.76529256
0.76450762
0.76372178
0.76293648
0.76215042
0.76136483
0.76057909
0.75979390
0.75900718
0.75822169
0.75743606
0.75665028
0.75586367
0.75507829
0.75429269
0.75350701
0.75272119
0.75193454
0.75114836
0.75036279
0.74957701
0.74879115
0.74800507
0.74721892
0.74643325
0.74564612
0.74486016
0.74407405
0.74328779
0.74250208
0.74171553
0.74092953
0.74014339
0.73935710
0.73857066
0.73778477
0.73699874
0.73621187
0.73542616
0.73463970
0.73385308
0.73306695
0.73228005
0.73149369
0.73070713
0.72992110
0.72913432
0.72834801
0.72756093
0.72677433
0.72598828
0.72520209
0.72441575
0.72362858
0.72284202
0.72205526
0.72126897
0.72048191
0.71969610
0.71890945
0.71812265
0.71733565
0.71654857
0.71576134
0.71497529
0.71418847
0.71340151
0.71261434
0.71182841
0.71104102
0.71025411
0.70946713
0.70868063
0.70789399
0.70710651
0.70632028
0.70553320
0.70474530
0.70395801
0.70317183
0.70238489
0.70159710
0.70081057
0.70002319
0.69923700
0.69844934
0.69766154
0.69687561
0.69608753
0.69530132
0.69451365
0.69372576
0.69293913
0.69215173
0.69136481
0.69057705
0.68979055
0.68900258
0.68821579
0.68742816
0.68664109
0.68585318
0.68506653
0.68427834
0.68349140
0.68270362
0.68191633
0.68112897
0.68034147
0.67955445
0.67876667
0.67797937
0.67719130
0.67640442
0.67561677
0.67482891
0.67404161
0.67325354
0.67246595
0.67167893
0.67089043
0.67010313
0.66931568
0.66852739
0.66774036
0.66695250
0.66616512
0.66537697
0.66458938
0.66380165
0.66301308
0.66222571
0.66143826
0.66065060
0.65986287
0.65907431
0.65828693
0.65749878
0.65671113
0.65592333
0.65513477
0.65434669
0.65355918
0.65277153
0.65198374
0.65119581
0.65040711
0.64961890
0.64883118
0.64804277
0.64725477
0.64646741
0.64567921
0.64489087
0.64410302
0.64331511
0.64252698
0.64173879
0.64095046
0.64016262
0.63937401
0.63858590
0.63779765
0.63700933
0.63622150
0.63543283
0.63464473
0.63385649
0.63306811
0.63227966
0.63149164
0.63070292
0.62991462
0.62912626
0.62833775
0.62754911
0.62676033
0.62597276
0.62518441
0.62439592
0.62360723
0.62281846
0.62203027
0.62124258
0.62045404
0.61966543
0.61887662
0.61808766
0.61729999
0.61651154
0.61572217
0.61493338
0.61414445
0.61335680
0.61256830
0.61177895
0.61099089
0.61020198
0.60941364
0.60862446
0.60783649
0.60704703
0.60625814
0.60547047
0.60468131
0.60389194
0.60310393
0.60231500
0.60152664
0.60073751
0.59994817
0.59916011
0.59837128
0.59758295
0.59679377
0.59600446
0.59521572
0.59442685
0.59363855
0.59284869
0.59206084
0.59127142
0.59048257
0.58969352
0.58890512
0.58811516
0.58732713
0.58653760
0.58574866
0.58495951
0.58417093
0.58338086
0.58259273
0.58180382
0.58101399
0.58022545
0.57943606
0.57864732
0.57785838
0.57706858
0.57628008
0.57549001
0.57470124
0.57391233
0.57312258
0.57233404
0.57154545
0.57075600
0.56996642
0.56917734
0.56838821
0.56759893
0.56680946
0.56602063
0.56523160
0.56444179
0.56365249
0.56286377
0.56207420
0.56128457
0.56049544
0.55970619
0.55891680
0.55812799
0.55733833
0.55654854
0.55575932
0.55496998
0.55418050
0.55339161
0.55260258
0.55181263
0.55102261
0.55023318
0.54944426
0.54865456
0.54786545
0.54707613
0.54628668
0.54549717
0.54470745
0.54391831
0.54312840
0.54233900
0.54154946
0.54075987
0.53997079
0.53918085
0.53839150
0.53760202
0.53681241
0.53602266
0.53523278
0.53444342
0.53365327
0.53286371
0.53207402
0.53128557
0.53049561
0.52970545
0.52891595
0.52812624
0.52733648
0.52654651
0.52575647
0.52496768
0.52417804
0.52338833
0.52259842
0.52180837
0.52101892
0.52022933
0.51943962
0.51864904
0.51785906
0.51707039
0.51628015
0.51549049
0.51469998
0.51391071
0.51312066
0.51233120
0.51154154
0.51075182
0.50996124
0.50917191
0.50838179
0.50759219
0.50680247
0.50601268
0.50522196
0.50443257
0.50364238
0.50285338
0.50206293
0.50127229
0.50048296
0.49969277
0.49890391
0.49811346
0.49732288
0.49653356
0.49574279
0.49495320
0.49416282
0.49337370
0.49258306
0.49179374
0.49100284
0.49021320
0.48942276
0.48863358
0.48784281
0.48705344
0.48626387
0.48547271
0.48468361
0.48389299
0.48310289
0.48231340
0.48152231
0.48073256
0.47994194
0.47915265
0.47836251
0.47757223
0.47678183
0.47599268
0.47520128
0.47441194
0.47362167
0.47283135
0.47204089
0.47125096
0.47046164
0.46967079
0.46888055
0.46809083
0.46730098
0.46650962
0.46571952
0.46493001
0.46413965
0.46334850
0.46255876
0.46176874
0.46097859
0.46018904
0.45939864
0.45860737
0.45781744
0.45702730
0.45623711
0.45544679
0.45465701
0.45386643
0.45307646
0.45228628
0.45149532
0.45070489
0.44991440
0.44912444
0.44833443
0.44754422
0.44675388
0.44596341
0.44517289
0.44438289
0.44359204
0.44280179
0.44201142
0.44122091
0.44043101
0.43964025
0.43885010
0.43805982
0.43726933
0.43647880
0.43568887
0.43489874
0.43410855
0.43331750
0.43252699
0.43173642
0.43094639
0.43015556
0.42936601
0.42857559
0.42778512
0.42699445
0.42620365
0.42541280
0.42462322
0.42383278
0.42304221
0.42225151
0.42146069
0.42067121
0.41988013
0.41908966
0.41829907
0.41750901
0.41671816
0.41592792
0.41513749
0.41434700
0.41355638
0.41276630
0.41197543
0.41118435
0.41039464
0.40960412
0.40881341
0.40802331
0.40723242
0.40644133
0.40565159
0.40486032
0.40407033
0.40327947
0.40248849
0.40169886
0.40090762
0.40011767
0.39932692
0.39853679
0.39774579
0.39695541
0.39616482
0.39537493
0.39458343
0.39379321
0.39300219
0.39221247
0.39142120
0.39063122
0.38983971
0.38904947
0.38825845
0.38746871
0.38667810
0.38588737
0.38509651
0.38430561
0.38351524
0.38272542
0.38193413
0.38114339
0.38035320
0.37956221
0.37877184
0.37798134
0.37719072
0.37639990
0.37560977
0.37481803
0.37402832
0.37323782
