corrn_curve_quartic
0.57051199
0.57022401
0.56993560
0.56964756
0.56935909
0.56907101
0.56878288
0.56849475
0.56820656
0.56791834
0.56763051
0.56734225
0.56705437
0.56676603
0.56647808
0.56619010
0.56590210
0.56561406
0.56532639
0.56503829
0.56475059
0.56446243
0.56417506
0.56388725
0.56359942
0.56331155
0.56302364
0.56273612
0.56244818
0.56216061
0.56187300
0.56158537
0.56129770
0.56101001
0.56072268
0.56043493
0.56014757
0.55986018
0.55957233
0.55928486
0.55899738
0.55871027
0.55842271
0.55813514
0.55784794
0.55756071
0.55727345
0.55698574
0.55669884
0.55641149
0.55612411
0.55583713
0.55554969
0.55526262
0.55497555
0.55468844
0.55440128
0.55411412
0.55382691
0.55353968
0.55325325
0.55296595
0.55267903
0.55239209
0.55210472
0.55181814
0.55153111
0.55124447
0.55095738
0.55067066
0.55038393
0.55009717
0.54981037
0.54952355
0.54923670
0.54895023
0.54866330
0.54837679
0.54809023
0.54780363
0.54751661
0.54723036
0.54694370
0.54665699
0.54637025
0.54608390
0.54579792
0.54551109
0.54522465
0.54493819
0.54465167
0.54436554
0.54407899
0.54379281
0.54350661
0.54322016
0.54293389
0.54264780
0.54236128
0.54207534
0.54178916
0.54150316
0.54121671
0.54093066
0.54064455
0.54035822
0.54007229
0.53978631
0.53950052
0.53921448
0.53892822
0.53864233
0.53835643
0.53807069
0.53778471
0.53749870
0.53721288
0.53692704
0.53664135
0.53635564
0.53606991
0.53578373
0.53549815
0.53521232
0.53492666
0.53464121
0.53435549
0.53406997
0.53378441
0.53349883
0.53321320
0.53292776
0.53264208
0.53235639
0.53207085
0.53178550
0.53149991
0.53121451
0.53092907
0.53064381
0.53035830
0.53007298
0.52978804
0.52950267
0.52921746
0.52893224
0.52864696
0.52836169
0.52807636
0.52779121
0.52750605
0.52722085
0.52693561
0.52665056
0.52636569
0.52608077
0.52579563
0.52551046
0.52522547
0.52494045
0.52465581
0.52437073
0.52408582
0.52380090
0.52351592
0.52323134
0.52294633
0.52266148
0.52237661
0.52209172
0.52180718
0.52152243
0.52123764
0.52095326
0.52066841
0.52038375
0.52009906
0.51981453
0.51953000
0.51924522
0.51896082
0.51867617
0.51839173
0.51810745
0.51782272
0.51753859
0.51725403
0.51696942
0.51668521
0.51640075
0.51611626
0.51583217
0.51554763
0.51526367
0.51497907
0.51469507
0.51441082
0.51412676
0.51384225
0.51355833
0.51327396
0.51298998
0.51270578
0.51242195
0.51213767
0.51185378
0.51156944
0.51128571
0.51100153
0.51071774
0.51043349
0.51014986
0.50986596
0.50958184
0.50929811
0.50901413
0.50873034
0.50844672
0.50816267
0.50787899
0.50759549
0.50731154
0.50702799
0.50674440
0.50646038
0.50617696
0.50589328
0.50560958
0.50532604
0.50504249
0.50475913
0.50447531
0.50419187
0.50390841
0.50362512
0.50334140
0.50305805
0.50277467
0.50249126
0.50220763
0.50192438
0.50164110
0.50135779
0.50107466
0.50079129
0.50050789
0.50022467
0.49994142
0.49965834
0.49937525
0.49909211
0.49880895
0.49852575
0.49824276
0.49795930
0.49767623
0.49739333
0.49711020
0.49682727
0.49654429
0.49626149
0.49597845
0.49569560
0.49541269
0.49512977
0.49484683
0.49456407
0.49428107
0.49399823
0.49371559
0.49343269
0.49315000
0.49286725
0.49258450
0.49230169
0.49201929
0.49173664
0.49145396
0.49117125
0.49088873
0.49060618
0.49032338
0.49004077
0.48975855
0.48947609
0.48919359
0.48891107
0.48862852
0.48834592
0.48806394
0.48778130
0.48749905
0.48721657
0.48693403
0.48665212
0.48636974
0.48608736
0.48580492
0.48552288
0.48524060
0.48495829
0.48467636
0.48439421
0.48411181
0.48383000
0.48354776
0.48326568
0.48298380
0.48270166
0.48241951
0.48213753
0.48185551
0.48157349
0.48129163
0.48100953
0.48072782
0.48044588
0.48016368
0.47988211
0.47960007
0.47931841
0.47903653
0.47875483
0.47847289
0.47819111
0.47790954
0.47762770
0.47734607
0.47706417
0.47678268
0.47650096
0.47621940
0.47593803
0.47565620
0.47537477
0.47509309
0.47481160
0.47453008
0.47424875
0.47396736
0.47368554
0.47340433
0.47312266
0.47284137
0.47256027
0.47227851
0.47199734
0.47171615
0.47143452
0.47115348
0.47087220
0.47059069
0.47030956
0.47002860
0.46974700
0.46946600
0.46918495
0.46890389
0.46862258
0.46834146
0.46806050
0.46777954
0.46749811
0.46721728
0.46693620
0.46665533
0.46637441
0.46609303
0.46581228
0.46553127
0.46525045
0.46496959
0.46468893
0.46440779
0.46412685
0.46384609
0.46356528
0.46328468
0.46300383
0.46272314
0.46244245
0.46216171
0.46188117
0.46160015
0.46131955
0.46103890
0.46075823
0.46047754
0.46019702
0.45991646
0.45963588
0.45935527
0.45907484
0.45879439
0.45851390
0.45823336
0.45795281
0.45767245
0.45739226
0.45711205
0.45683158
0.45655110
0.45627078
0.45599046
0.45571008
0.45542967
0.45514945
0.45486922
0.45458916
0.45430885
0.45402873
0.45374835
0.45346817
0.45318795
0.45290812
0.45262806
0.45234776
0.45206761
0.45178746
0.45150770
0.45122771
0.45094744
0.45066739
0.45038772
0.45010758
0.44982763
0.44954765
0.44926786
0.44898804
0.44870799
0.44842830
0.44814839
0.44786844
0.44758890
0.44730909
0.44702906
0.44674964
0.44646974
0.44618983
0.44591031
0.44563055
0.44535118
0.44507135
0.44479150
0.44451204
0.44423233
0.44395303
0.44367326
0.44339389
0.44311428
0.44283485
0.44255518
0.44227591
0.44199637
0.44171704
0.44143746
0.44115827
0.44087863
0.44059937
0.44031989
0.44004057
0.43976102
0.43948186
0.43920289
0.43892323
0.43864420
0.43836470
0.43808560
0.43780669
0.43752710
0.43724813
0.43696869
0.43668964
0.43641080
0.43613149
0.43585235
0.43557341
0.43529421
0.43501521
0.43473616
0.43445730
0.43417821
0.43389929
0.43362034
0.43334113
0.43306234
0.43278351
0.43250465
0.43222577
0.43194663
0.43166790
0.43138914
0.43111054
0.43083172
0.43055264
0.43027396
0.42999526
0.42971651
0.42943795
0.42915916
0.42888031
0.42860166
0.42832300
0.42804450
0.42776575
0.42748719
0.42720860
0.42693020
0.42665155
0.42637307
0.42609457
0.42581605
0.42553769
0.42525888
0.42498048
0.42470203
0.42442357
0.42414505
0.42386675
0.42358861
0.42331023
0.42303181
0.42275358
0.42247532
0.42219683
0.42191870
0.42164035
0.42136196
0.42108376
0.42080554
0.42052728
0.42024898
0.41997108
0.41969295
0.41941476
0.41913657
0.41885854
0.41858028
0.41830219
0.41802429
0.41774616
0.41746819
0.41718998
0.41691195
0.41663433
0.41635624
0.41607812
0.41580019
0.41552242
0.41524443
0.41496663
0.41468857
0.41441090
0.41413300
0.41385507
0.41357753
0.41329951
0.41302170
0.41274407
0.41246618
0.41218850
0.41191097
0.41163301
0.41135521
0.41107783
0.41079997
0.41052252
0.41024482
0.40996707
0.40968953
0.40941195
0.40913455
0.40885691
0.40857947
0.40830174
0.40802423
0.40774689
0.40746910
0.40719191
0.40691426
0.40663701
0.40635931
0.40608220
0.40580466
0.40552728
0.40525008
0.40497264
0.40469539
0.40441789
0.40414080
0.40386324
0.40358606
0.40330908
0.40303164
0.40275439
0.40247709
0.40220000
0.40192286
0.40164546
0.40136847
0.40109148
0.40081421
0.40053713
0.40026023
0.39998287
0.39970591
0.39942893
0.39915191
0.39887464
0.39859775
0.39832086
0.39804392
0.39776674
0.39748997
0.39721315
0.39693630
0.39665944
0.39638230
0.39610538
0.39582862
0.39555183
0.39527501
0.39499794
0.39472127
0.39444436
0.39416763
0.39389109
0.39361430
0.39333768
0.39306083
0.39278394
0.39250724
0.39223051
0.39195395
0.39167736
0.39140076
0.39112410
0.39084763
0.39057094
0.39029441
0.39001784
0.38974125
0.38946484
0.38918821
0.38891172
0.38863521
0.38835868
0.38808234
0.38780574
0.38752934
0.38725287
0.38697640
0.38670012
0.38642401
0.38614764
0.38587127
0.38559483
0.38531839
0.38504212
0.38476581
0.38448950
0.38421335
0.38393717
0.38366073
0.38338449
0.38310821
0.38283190
0.38255601
0.38227984
0.38200365
0.38172744
0.38145161
0.38117533
0.38089922
0.38062288
0.38034715
0.38007096
0.37979472
0.37951869
0.37924283
0.37896671
0.37869079
0.37841483
0.37813884
0.37786282
0.37758699
0.37731090
0.37703501
0.37675930
0.37648334
0.37620734
0.37593152
0.37565568
0.37538002
0.37510412
0.37482839
0.37455242
0.37427662
0.37400102
0.37372495
0.37344951
0.37317358
0.37289807
0.37262207
0.37234672
0.37207088
0.37179524
0.37151956
0.37124408
0.37096811
0.37069276
0.37041696
0.37014157
0.36986612
0.36959021
0.36931492
0.36903918
0.36876382
0.36848844
0.36821259
0.36793736
0.36766165
0.36738636
0.36711103
0.36683525
0.36656006
0.36628463
0.36600917
0.36573391
0.36545861
0.36518305
0.36490768
0.36463249
0.36435728
0.36408159
0.36380652
0.36353119
0.36325608
0.36298046
0.36270548
0.36243027
0.36215500
0.36187992
0.36160436
0.36132945
0.36105427
0.36077906
0.36050404
0.36022899
0.35995346
0.35967857
0.35940339
0.35912844
0.35885345
0.35857840
0.35830334
0.35802823
0.35775333
0.35747792
0.35720296
0.35692816
0.35665311
0.35637825
0.35610315
0.35582822
0.35555348
0.35527849
0.35500366
0.35472862
0.35445373
0.35417883
0.35390412
0.35362914
0.35335434
0.35307953
0.35280469
0.35253024
0.35225531
0.35198059
0.35170581
0.35143103
0.35115618
0.35088153
0.35060665
0.35033193
0.35005761
0.34978285
0.34950823
0.34923341
0.34895875
0.34868403
0.34840976
0.34813500
0.34786043
0.34758581
0.34731118
0.34703671
0.34676224
0.34648748
0.34621294
0.34593857
0.34566396
0.34538952
0.34511527
0.34484076
0.34456599
0.34429165
0.34401727
0.34374285
0.34346840
0.34319415
0.34291963
0.34264553
0.34237095
0.34209653
0.34182233
0.34154787
0.34127336
0.34099928
0.34072493
0.34045076
0.34017636
0.33990236
0.33962789
0.33935382
0.33907948
0.33880511
0.33853094
0.33825673
0.33798272
0.33770821
0.33743436
0.33716001
0.33688609
0.33661211
0.33633766
0.33606386
0.33578955
0.33551546
0.33524133
0.33496737
0.33469338
0.33441915
0.33414532
0.33387099
0.33359712
0.33332318
0.33304898
0.33277521
0.33250140
0.33222710
0.33195322
0.33167954
0.33140536
0.33113159
0.33085780
0.33058352
0.33030989
0.33003598
0.32976228
0.32948807
0.32921431
0.32894071
0.32866686
0.32839276
0.32811906
0.32784533
0.32757158
0.32729801
0.32702395
0.32675031
0.32647663
0.32620292
0.32592918
0.32565560
0.32538179
0.32510794
0.32483428
0.32456059
0.32428708
0.32401332
0.32373973
0.32346613
0.32319248
0.32291902
0.32264531
0.32237178
0.32209821
0.32182464
0.32155123
0.32127733
0.32100385
0.32073034
0.32045703
0.32018345
0.31991006
0.31963662
0.31936316
0.31908967
0.31881615
0.31854257
0.31826920
0.31799580
0.31772234
0.31744887
0.31717534
0.31690201
0.31662890
0.31635549
0.31608206
0.31580858
0.31553530
0.31526202
0.31498844
0.31471549
0.31444207
0.31416885
0.31389536
0.31362207
0.31334897
0.31307581
0.31280241
0.31252921
0.31225618
0.31198290
0.31170957
0.31143623
0.31116329
0.31089008
0.31061686
0.31034381
0.31007050
0.30979738
0.30952446
0.30925127
0.30897784
0.30870502
0.30843174
0.30815862
0.30788572
0.30761255
0.30733978
0.30706654
0.30679327
0.30652042
0.30624728
0.30597457
0.30570138
0.30542860
0.30515534
0.30488225
0.30460959
0.30433646
0.30406350
0.30379050
0.30351770
0.30324464
0.30297176
0.30269886
0.30242615
0.30215340
0.30188015
0.30160754
0.30133446
0.30106180
0.30078864
0.30051612
0.30024334
0.29997030
0.29969768
0.29942504
0.29915187
0.29887937
0.29860639
0.29833359
0.29806098
0.29778810
0.29751542
0.29724270
0.29697018
0.29669716
0.29642456
0.29615194
0.29587904
0.29560634
0.29533381
0.29506127
0.29478846
0.29451583
0.29424318
0.29397070
0.29369819
0.29342520
0.29315262
0.29288003
0.29260761
0.29233515
0.29206265
0.29178968
0.29151711
0.29124472
0.29097211
0.29069964
0.29042716
0.29015465
0.28988233
0.28960975
0.28933733
0.28906444
0.28879198
0.28851969
0.28824716
0.28797480
0.28770219
0.28742976
0.28715752
0.28688504
0.28661249
0.28634015
0.28606777
0.28579537
0.28552292
0.28525066
0.28497813
0.28470625
0.28443388
0.28416148
0.28388904
0.28361680
0.28334426
0.28307195
0.28279960
0.28252742
0.28225500
0.28198298
0.28171072
0.28143839
0.28116603
0.28089366
0.28062146
0.28034946
0.28007719
0.27980488
0.27953256
0.27926062
0.27898843
0.27871600
0.27844372
0.27817189
0.27789956
0.27762743
0.27735502
0.27708326
0.27681102
0.27653871
0.27626687
0.27599472
0.27572233
0.27545058
0.27517833
0.27490606
0.27463421
0.27436208
0.27408991
0.27381796
0.27354572
0.27327392
0.27300184
0.27272949
0.27245778
0.27218559
0.27191383
0.27164157
0.27136974
0.27109761
0.27082594
0.27055376
0.27028200
0.27000975
0.26973791
0.26946581
0.26919414
0.26892195
0.26865019
0.26837819
0.26810636
0.26783426
0.26756236
0.26729042
0.26701868
0.26674690
0.26647485
0.26620299
0.26593134
0.26565918
0.26538742
0.26511542
0.26484362
0.26457199
0.26429987
0.26402817
0.26375646
0.26348444
0.26321289
0.26294103
0.26266938
0.26239748
0.26212575
0.26185398
0.26158242
0.26131034
0.26103870
0.26076702
0.26049530
0.26022331
0.25995175
0.25968014
0.25940851
0.25913684
0.25886490
0.25859313
0.25832159
0.25804998
0.25777836
0.25750668
0.25723499
0.25696347
0.25669146
0.25641987
0.25614824
0.25587657
0.25560510
0.25533335
0.25506181
0.25479022
0.25451860
0.25424694
0.25397548
0.25370399
0.25343221
0.25316085
0.25288924
0.25261759
0.25234612
0.25207440
0.25180287
0.25153129
0.25125990
0.25098826
0.25071680
0.25044508
0.25017355
0.24990221
0.24963083
0.24935942
0.24908773
0.24881626
0.24854473
0.24827338
0.24800177
0.24773061
0.24745916
0.24718768
0.24691614
0.24664458
0.24637298
0.24610180
0.24583037
0.24555890
0.24528736
0.24501627
0.24474468
0.24447327
0.24420185
0.24393060
0.24365932
0.24338775
0.24311663
0.24284523
0.24257355
0.24230209
0.24203103
0.24175972
0.24148812
0.24121697
0.24094554
0.24067452
0.24040301
0.24013147
0.23986058
0.23958895
0.23931799
0.23904652
0.23877500
0.23850392
0.23823258
0.23796142
0.23768998
0.23741898
0.23714749
0.23687641
0.23660506
0.23633391
0.23606248
0.23579149
0.23551998
0.23524891
0.23497756
0.23470640
0.23443521
0.23416399
0.23389295
0.23362165
0.23335052
0.23307915
0.23280819
0.23253697
0.23226569
0.23199462
0.23172328
0.23145213
0.23118118
0.23090973
0.23063870
0.23036763
0.23009628
0.22982537
0.22955419
0.22928318
0.22901192
0.22874085
0.22846975
0.22819837
0.22792741
0.22765643
0.22738539
0.22711433
0.22684300
0.22657208
0.22630091
0.22602991
0.22575888
0.22548759
0.22521647
0.22494556
0.22467461
0.22440362
0.22413260
0.22386131
0.22359020
0.22331928
0.22304811
0.22277711
0.22250633
0.22223526
0.22196416
0.22169324
0.22142230
0.22115130
0.22088028
0.22060923
0.22033835
0.22006721
0.21979626
0.21952526
0.21925425
0.21898342
0.21871230
0.21844139
0.21817044
0.21789945
0.21762844
0.21735759
0.21708650
0.21681557
0.21654463
0.21627364
0.21600261
0.21573155
0.21546090
0.21519000
0.21491906
0.21464805
0.21437703
0.21410622
0.21383558
0.21356465
0.21329372
0.21302272
0.21275167
0.21248108
0.21221023
0.21193907
0.21166811
0.21139711
0.21112656
0.21085573
0.21058461
0.21031394
0.21004299
0.20977224
0.20950120
0.20923059
0.20895948
0.20868857
0.20841808
0.20814709
0.20787604
0.20760546
0.20733457
0.20706388
0.20679293
0.20652192
0.20625136
0.20598054
0.20570989
0.20543897
0.20516800
0.20489723
0.20462643
0.20435583
0.20408470
0.20381427
0.20354330
0.20327254
0.20300172
0.20273112
0.20245999
0.20218954
0.20191858
0.20164782
0.20137700
0.20110638
0.20083525
0.20056480
0.20029409
0.20002306
0.19975249
0.19948163
0.19921099
0.19894030
0.19866932
0.19839878
0.19812772
0.19785711
0.19758646
0.19731552
0.19704500
0.19677447
0.19650366
0.19623280
0.19596212
0.19569143
0.19542070
0.19514990
0.19487933
0.19460870
0.19433781
0.19406709
0.19379658
0.19352578
0.19325497
0.19298434
0.19271367
0.19244295
0.19217245
0.19190165
0.19163082
0.19136019
0.19108951
0.19081880
0.19054830
0.19027775
0.19000689
0.18973601
0.18946534
0.18919485
0.18892410
0.18865356
0.18838294
0.18811229
0.18784162
0.18757089
0.18730036
0.18702957
0.18675895
0.18648830
0.18621763
0.18594715
0.18567637
0.18540580
0.18513519
0.18486454
0.18459385
0.18432311
0.18405256
0.18378174
0.18351113
0.18324048
0.18297026
0.18269952
0.18242872
0.18215816
0.18188752
0.18161687
0.18134615
0.18107542
0.18080511
0.18053452
0.18026391
0.17999323
0.17972251
0.17945200
0.17918145
0.17891085
0.17863997
0.17836929
0.17809907
0.17782831
0.17755776
0.17728692
0.17701650
0.17674582
0.17647535
0.17620482
0.17593426
0.17566342
0.17539300
0.17512233
0.17485183
0.17458129
0.17431074
0.17403987
0.17376945
0.17349877
0.17322850
0.17295773
0.17268691
0.17241653
0.17214587
0.17187566
0.17160491
0.17133412
0.17106376
0.17079291
0.17052247
0.17025176
0.16998149
0.16971070
0.16944036
0.16916949
0.16889904
0.16862833
0.16835806
0.16808724
0.16781690
0.16754650
0.16727555
0.16700532
0.16673456
0.16646399
0.16619363
0.16592272
0.16565228
0.16538154
0.16511126
0.16484068
0.16457007
0.16429941
0.16402919
0.16375819
0.16348791
0.16321731
0.16294669
0.16267603
0.16240556
0.16213529
0.16186450
0.16159392
0.16132353
0.16105309
0.16078213
0.16051161
0.16024130
0.15997069
0.15969982
0.15942943
0.15915895
0.15888842
0.15861810
0.15834750
0.15807659
0.15780615
0.15753564
0.15726511
0.15699454
0.15672415
0.15645350
0.15618305
0.15591254
0.15564176
0.15537116
0.15510054
0.15483011
0.15455966
0.15428914
0.15401858
0.15374798
0.15347736
0.15320692
0.15293619
0.15266567
0.15239511
0.15212450
0.15185410
0.15158341
0.15131293
0.15104240
0.15077181
0.15050120
0.15023080
0.14996033
0.14968984
0.14941906
0.14914846
0.14887785
0.14860742
0.14833672
0.14806645
0.14779589
0.14752532
0.14725467
0.14698398
0.14671328
0.14644301
0.14617245
0.14590184
0.14563119
0.14536050
0.14509027
0.14481949
0.14454892
0.14427831
0.14400788
0.14373719
0.14346670
0.14319614
0.14292557
0.14265495
0.14238452
0.14211382
0.14184305
0.14157274
0.14130216
0.14103151
0.14076108
0.14049037
0.14021959
0.13994928
0.13967844
0.13940804
0.13913735
0.13886661
0.13859633
0.13832551
0.13805512
0.13778446
0.13751401
0.13724327
0.13697273
0.13670213
0.13643176
0.13616085
0.13589037
0.13561962
0.13534930
0.13507847
0.13480807
0.13453714
0.13426666
0.13399590
0.13372558
0.13345497
0.13318431
0.13291361
0.13264289
0.13237235
0.13210200
0.13183115
0.13156049
0.13129001
0.13101926
0.13074872
0.13047813
0.13020750
0.12993681
0.12966635
0.12939533
0.12912501
0.12885442
