corrn_curve_quadratic
0.64346629
0.64317597
0.64288517
0.64259467
0.64230369
0.64201303
0.64172227
0.64143143
0.64114049
0.64084945
0.64055875
0.64026755
0.63997667
0.63968527
0.63939421
0.63910305
0.63881181
0.63852047
0.63822945
0.63793794
0.63764676
0.63735506
0.63706411
0.63677264
0.63648110
0.63618945
0.63589771
0.63560630
0.63531441
0.63502282
0.63473115
0.63443939
0.63414754
0.63385559
0.63356397
0.63327185
0.63298006
0.63268819
0.63239580
0.63210373
0.63181159
0.63151977
0.63122743
0.63093502
0.63064293
0.63035074
0.63005847
0.62976569
0.62947367
0.62918113
0.62888851
0.62859622
0.62830342
0.62801093
0.62771838
0.62742574
0.62713299
0.62684017
0.62654724
0.62625424
0.62596199
0.62566880
0.62537595
0.62508300
0.62478957
0.62449687
0.62420367
0.62391080
0.62361742
0.62332435
0.62303122
0.62273800
0.62244467
0.62215128
0.62185779
0.62156463
0.62127095
0.62097763
0.62068420
0.62039069
0.62009668
0.61980340
0.61950964
0.61921577
0.61892182
0.61862821
0.61833492
0.61804070
0.61774683
0.61745287
0.61715880
0.61686508
0.61657085
0.61627695
0.61598299
0.61568870
0.61539453
0.61510050
0.61480597
0.61451198
0.61421768
0.61392352
0.61362883
0.61333449
0.61304005
0.61274531
0.61245093
0.61215644
0.61186210
0.61156743
0.61127248
0.61097786
0.61068317
0.61038859
0.61009371
0.60979874
0.60950390
0.60920900
0.60891418
0.60861930
0.60832433
0.60802884
0.60773392
0.60743869
0.60714357
0.60684861
0.60655332
0.60625818
0.60596293
0.60566762
0.60537221
0.60507692
0.60478133
0.60448567
0.60419013
0.60389472
0.60359900
0.60330342
0.60300775
0.60271221
0.60241635
0.60212064
0.60182526
0.60152938
0.60123361
0.60093778
0.60064183
0.60034583
0.60004972
0.59975374
0.59945770
0.59916155
0.59886531
0.59856921
0.59827324
0.59797717
0.59768081
0.59738437
0.59708806
0.59679166
0.59649560
0.59619904
0.59590259
0.59560607
0.59530945
0.59501318
0.59471641
0.59441975
0.59412301
0.59382620
0.59352971
0.59323293
0.59293607
0.59263957
0.59234253
0.59204564
0.59174866
0.59145179
0.59115486
0.59085763
0.59056073
0.59026352
0.58996647
0.58966954
0.58937208
0.58907520
0.58877782
0.58848033
0.58818319
0.58788575
0.58758823
0.58729107
0.58699337
0.58669624
0.58639838
0.58610110
0.58580349
0.58550605
0.58520807
0.58491065
0.58461271
0.58431513
0.58401726
0.58371973
0.58342167
0.58312397
0.58282575
0.58252811
0.58222993
0.58193213
0.58163379
0.58133603
0.58103795
0.58073958
0.58044158
0.58014324
0.57984507
0.57954702
0.57924845
0.57895023
0.57865215
0.57835354
0.57805529
0.57775696
0.57745812
0.57715985
0.57686127
0.57656260
0.57626405
0.57596545
0.57566698
0.57536798
0.57506933
0.57477061
0.57447202
0.57417291
0.57387415
0.57357530
0.57327637
0.57297716
0.57267829
0.57237934
0.57208030
0.57178141
0.57148221
0.57118292
0.57088378
0.57058456
0.57028545
0.56998629
0.56968702
0.56938769
0.56908826
0.56878899
0.56848918
0.56818973
0.56789041
0.56759079
0.56729134
0.56699178
0.56669236
0.56639264
0.56609305
0.56579337
0.56549362
0.56519380
0.56489411
0.56459412
0.56429425
0.56399455
0.56369451
0.56339464
0.56309467
0.56279464
0.56249450
0.56219474
0.56189467
0.56159451
0.56129428
0.56099419
0.56069401
0.56039353
0.56009320
0.55979323
0.55949296
0.55919259
0.55889215
0.55859163
0.55829101
0.55799099
0.55769023
0.55738982
0.55708912
0.55678832
0.55648813
0.55618739
0.55588660
0.55558570
0.55528518
0.55498434
0.55468343
0.55438287
0.55408202
0.55378086
0.55348029
0.55317920
0.55287823
0.55257744
0.55227631
0.55197513
0.55167407
0.55137292
0.55107172
0.55077065
0.55046927
0.55016826
0.54986694
0.54956532
0.54926430
0.54896274
0.54866154
0.54836005
0.54805871
0.54775706
0.54745553
0.54715418
0.54685249
0.54655098
0.54624913
0.54594767
0.54564591
0.54534429
0.54504281
0.54474079
0.54443915
0.54413721
0.54383541
0.54353353
0.54323180
0.54292997
0.54262762
0.54232589
0.54202361
0.54172169
0.54141992
0.54111740
0.54081547
0.54051347
0.54021094
0.53990900
0.53960675
0.53930422
0.53900204
0.53870000
0.53839722
0.53809504
0.53779276
0.53749041
0.53718776
0.53688526
0.53658289
0.53628046
0.53597749
0.53567511
0.53537242
0.53506991
0.53476730
0.53446413
0.53416162
0.53385876
0.53355606
0.53325329
0.53295066
0.53264749
0.53234447
0.53204161
0.53173865
0.53143586
0.53113276
0.53082979
0.53052677
0.53022364
0.52992069
0.52961717
0.52931406
0.52901086
0.52870757
0.52840422
0.52810101
0.52779772
0.52749435
0.52719091
0.52688761
0.52658424
0.52628079
0.52597724
0.52567364
0.52537019
0.52506687
0.52476350
0.52445979
0.52415602
0.52385239
0.52354870
0.52324491
0.52294105
0.52263734
0.52233357
0.52202994
0.52172600
0.52142221
0.52111811
0.52081416
0.52051014
0.52020649
0.51990255
0.51959829
0.51929417
0.51898999
0.51868618
0.51838209
0.51807765
0.51777340
0.51746952
0.51716509
0.51686081
0.51655646
0.51625227
0.51594800
0.51564344
0.51533922
0.51503472
0.51473014
0.51442595
0.51412143
0.51381662
0.51351244
0.51320768
0.51290287
0.51259843
0.51229370
0.51198935
0.51168444
0.51137948
0.51107490
0.51077000
0.51046550
0.51016044
0.50985578
0.50955081
0.50924600
0.50894087
0.50863615
0.50833108
0.50802620
0.50772100
0.50741618
0.50711083
0.50680585
0.50650059
0.50619546
0.50589003
0.50558499
0.50528011
0.50497443
0.50466940
0.50436381
0.50405862
0.50375359
0.50344777
0.50314259
0.50283686
0.50253150
0.50222633
0.50192060
0.50161502
0.50130962
0.50100388
0.50069833
0.50039267
0.50008718
0.49978140
0.49947576
0.49917004
0.49886400
0.49855837
0.49825267
0.49794688
0.49764102
0.49733485
0.49702908
0.49672323
0.49641752
0.49611152
0.49580520
0.49549927
0.49519328
0.49488719
0.49458127
0.49427506
0.49396874
0.49366259
0.49335639
0.49305033
0.49274395
0.49243774
0.49213145
0.49182533
0.49151889
0.49121259
0.49090624
0.49059982
0.49029354
0.48998672
0.48968031
0.48937380
0.48906724
0.48876058
0.48845411
0.48814778
0.48784114
0.48753442
0.48722787
0.48692124
0.48661432
0.48630776
0.48600090
0.48569397
0.48538721
0.48508038
0.48477346
0.48446648
0.48415988
0.48385298
0.48354599
0.48323895
0.48293205
0.48262485
0.48231780
0.48201092
0.48170374
0.48139671
0.48108936
0.48078218
0.48047541
0.48016808
0.47986068
0.47955344
0.47924635
0.47893896
0.47863175
0.47832421
0.47801707
0.47770963
0.47740211
0.47709499
0.47678730
0.47647981
0.47617246
0.47586479
0.47555732
0.47524997
0.47494210
0.47463438
0.47432708
0.47401921
0.47371176
0.47340399
0.47309611
0.47278844
0.47248069
0.47217309
0.47186519
0.47155746
0.47124939
0.47094152
0.47063379
0.47032553
0.47001790
0.46970970
0.46940193
0.46909361
0.46878590
0.46847768
0.46816961
0.46786169
0.46755347
0.46724542
0.46693705
0.46662911
0.46632059
0.46601247
0.46570453
0.46539604
0.46508772
0.46477931
0.46447109
0.46416278
0.46385414
0.46354593
0.46323767
0.46292906
0.46262062
0.46231236
0.46200354
0.46169513
0.46138665
0.46107810
0.46076922
0.46046075
0.46015222
0.45984360
0.45953468
0.45922618
0.45891759
0.45860892
0.45830021
0.45799115
0.45768229
0.45737357
0.45706479
0.45675593
0.45644676
0.45613800
0.45582893
0.45552003
0.45521130
0.45490226
0.45459337
0.45428418
0.45397491
0.45366583
0.45335667
0.45304766
0.45273858
0.45242945
0.45212022
0.45181118
0.45150183
0.45119264
0.45088337
0.45057403
0.45026487
0.44995541
0.44964608
0.44933670
0.44902725
0.44871798
0.44840838
0.44809897
0.44778945
0.44747989
0.44717051
0.44686128
0.44655172
0.44624212
0.44593243
0.44562268
0.44531309
0.44500343
0.44469372
0.44438416
0.44407454
0.44376459
0.44345481
0.44314497
0.44283506
0.44252557
0.44221574
0.44190586
0.44159591
0.44128636
0.44097627
0.44066633
0.44035609
0.44004651
0.43973638
0.43942616
0.43911614
0.43880627
0.43849608
0.43818607
0.43787599
0.43756584
0.43725562
0.43694558
0.43663521
0.43632503
0.43601502
0.43570470
0.43539430
0.43508406
0.43477377
0.43446364
0.43415320
0.43384293
0.43353236
0.43322194
0.43291171
0.43260092
0.43229080
0.43198010
0.43166983
0.43135899
0.43104883
0.43073810
0.43042755
0.43011693
0.42980650
0.42949548
0.42918513
0.42887423
0.42856376
0.42825320
0.42794209
0.42763164
0.42732063
0.42701004
0.42669938
0.42638817
0.42607762
0.42576649
0.42545580
0.42514504
0.42483373
0.42452306
0.42421209
0.42390105
0.42359019
0.42327926
0.42296801
0.42265694
0.42234604
0.42203508
0.42172355
0.42141269
0.42110150
0.42079052
0.42047893
0.42016804
0.41985686
0.41954557
0.41923447
0.41892279
0.41861181
0.41830050
0.41798912
0.41767793
0.41736667
0.41705482
0.41674367
0.41643218
0.41612089
0.41580954
0.41549808
0.41518659
0.41487500
0.41456362
0.41425163
0.41394012
0.41362876
0.41331708
0.41300558
0.41269379
0.41238215
0.41207071
0.41175893
0.41144732
0.41113544
0.41082368
0.41051189
0.41020028
0.40988835
0.40957658
0.40926477
0.40895288
0.40864142
0.40832937
0.40801754
0.40770561
0.40739364
0.40708157
0.40676970
0.40645752
0.40614550
0.40583391
0.40552178
0.40520979
0.40489752
0.40458542
0.40427322
0.40396150
0.40364919
0.40333707
0.40302485
0.40271259
0.40240050
0.40208836
0.40177587
0.40146360
0.40115149
0.40083908
0.40052683
0.40021477
0.39990239
0.39958968
0.39927741
0.39896508
0.39865268
0.39834021
0.39802794
0.39771533
0.39740318
0.39709044
0.39677786
0.39646550
0.39615281
0.39584003
0.39552773
0.39521507
0.39490260
0.39458983
0.39427749
0.39396459
0.39365211
0.39333930
0.39302642
0.39271374
0.39240099
0.39208843
0.39177528
0.39146285
0.39114982
0.39083725
0.39052459
0.39021136
0.38989885
0.38958572
0.38927281
0.38895983
0.38864702
0.38833415
0.38802097
0.38770821
0.38739487
0.38708201
0.38676906
0.38645577
0.38614294
0.38583005
0.38551656
0.38520353
0.38489069
0.38457726
0.38426427
0.38395123
0.38363760
0.38332468
0.38301142
0.38269837
0.38238471
0.38207153
0.38175851
0.38144517
0.38113153
0.38081831
0.38050503
0.38019171
0.37987856
0.37956481
0.37925152
0.37893817
0.37862475
0.37831126
0.37799794
0.37768432
0.37737063
0.37705714
0.37674358
0.37643019
0.37611649
0.37580297
0.37548941
0.37517575
0.37486229
0.37454852
0.37423493
0.37392127
0.37360757
0.37329404
0.37297991
0.37266625
0.37235252
0.37203898
0.37172512
0.37141145
0.37109770
0.37078390
0.37047003
0.37015610
0.36984207
0.36952827
0.36921441
0.36890045
0.36858645
0.36827235
0.36795846
0.36764479
0.36733076
0.36701667
0.36670251
0.36638855
0.36607455
0.36576019
0.36544654
0.36513231
0.36481829
0.36450393
0.36418977
0.36387581
0.36356176
0.36324741
0.36293325
0.36261927
0.36230498
0.36199060
0.36167618
0.36136220
0.36104788
0.36073353
0.36041935
0.36010484
0.35979054
0.35947643
0.35916199
0.35884724
0.35853317
0.35821856
0.35790410
0.35758986
0.35727529
0.35696116
0.35664646
0.35633170
0.35601740
0.35570275
0.35538856
0.35507380
0.35475948
0.35444459
0.35412987
0.35381562
0.35350080
0.35318616
0.35287145
0.35255694
0.35224210
0.35192746
0.35161276
0.35129826
0.35098369
0.35066852
0.35035407
0.35003904
0.34972448
0.34940932
0.34909487
0.34878009
0.34846500
0.34815036
0.34783568
0.34752037
0.34720581
0.34689066
0.34657570
0.34626093
0.34594584
0.34563094
0.34531599
0.34500123
0.34468588
0.34437100
0.34405605
0.34374077
0.34342569
0.34311079
0.34279586
0.34248059
0.34216549
0.34185036
0.34153541
0.34122039
0.34090480
0.34058965
0.34027447
0.33995947
0.33964440
0.33932926
0.33901355
0.33869829
0.33838321
0.33806784
0.33775263
0.33743738
0.33712207
0.33680696
0.33649152
0.33617626
0.33586042
0.33554505
0.33522987
0.33491438
0.33459906
0.33428344
0.33396800
0.33365277
0.33333723
0.33302160
0.33270617
0.33239068
0.33207515
0.33175954
0.33144413
0.33112838
0.33081336
0.33049776
0.33018209
0.32986637
0.32955084
0.32923496
0.32891931
0.32860360
0.32828807
0.32797223
0.32765684
0.32734115
0.32702536
0.32670951
0.32639363
0.32607792
0.32576243
0.32544660
0.32513070
0.32481477
0.32449927
0.32418346
0.32386733
0.32355137
0.32323591
0.32291984
0.32260399
0.32228780
0.32197233
0.32165629
0.32134015
0.32102452
0.32070853
0.32039223
0.32007666
0.31976048
0.31944427
0.31912851
0.31881242
0.31849626
0.31818034
0.31786405
0.31754825
0.31723212
0.31691564
0.31659990
0.31628358
0.31596773
0.31565128
0.31533532
0.31501899
0.31470317
0.31438674
0.31407077
0.31375422
0.31343812
0.31312172
0.31280577
0.31248921
0.31217314
0.31185676
0.31154056
0.31122403
0.31090771
0.31059132
0.31027515
0.30995892
0.30964235
0.30932599
0.30900984
0.30869308
0.30837679
0.30806018
0.30774378
0.30742757
0.30711078
0.30679444
0.30647807
0.30616134
0.30584512
0.30552854
0.30521217
0.30489549
0.30457899
0.30426244
0.30394609
0.30362914
0.30331267
0.30299614
0.30267955
0.30236262
0.30204619
0.30172966
0.30141310
0.30109647
0.30077951
0.30046274
0.30014620
0.29982958
0.29951293
0.29919618
0.29887940
0.29856281
0.29824563
0.29792891
0.29761214
0.29729530
0.29697867
0.29666171
0.29634496
0.29602816
0.29571129
0.29539436
0.29507764
0.29476086
0.29444375
0.29412710
0.29381014
0.29349311
0.29317628
0.29285913
0.29254221
0.29222519
0.29190839
0.29159127
0.29127435
0.29095711
0.29064007
0.29032324
0.29000635
0.28968939
0.28937210
0.28905506
0.28873792
0.28842098
0.28810372
0.28778696
0.28746986
0.28715269
0.28683544
0.28651816
0.28620081
0.28588394
0.28556675
0.28524950
0.28493216
0.28461533
0.28429789
0.28398065
0.28366338
0.28334630
0.28302915
0.28271167
0.28239468
0.28207736
0.28175969
0.28144227
0.28112529
0.28080801
0.28049038
0.28017325
0.27985577
0.27953878
0.27922118
0.27890353
0.27858663
0.27826886
0.27795184
0.27763422
0.27731652
0.27699932
0.27668180
0.27636448
0.27604682
0.27572965
0.27541190
0.27509461
0.27477699
0.27445959
0.27414184
0.27382460
0.27350673
0.27318937
0.27287166
0.27255415
0.27223661
0.27191901
0.27160160
0.27128387
0.27096634
0.27064850
0.27033113
0.27001345
0.26969568
0.26937813
0.26906026
0.26874260
0.26842515
0.26810711
0.26778954
0.26747192
0.26715395
0.26683649
0.26651868
0.26620107
0.26588315
0.26556544
0.26524768
0.26492958
0.26461195
0.26429429
0.26397655
0.26365877
0.26334065
0.26302301
0.26270505
0.26238729
0.26206947
0.26175134
0.26143340
0.26111568
0.26079791
0.26048007
0.26016218
0.25984397
0.25952596
0.25920814
0.25889004
0.25857211
0.25825442
0.25793640
0.25761831
0.25730043
0.25698251
0.25666450
0.25634646
0.25602837
0.25571047
0.25539225
0.25507423
0.25475616
0.25443805
0.25412014
0.25380188
0.25348386
0.25316577
0.25284762
0.25252944
0.25221144
0.25189314
0.25157501
0.25125686
0.25093864
0.25062037
0.25030203
0.24998418
0.24966602
0.24934779
0.24902948
0.24871114
0.24839303
0.24807511
0.24775685
0.24743856
0.24712018
0.24680174
0.24648382
0.24616558
0.24584696
0.24552858
0.24521013
0.24489220
0.24457393
0.24425531
0.24393720
0.24361875
0.24330053
0.24298196
0.24266388
0.24234520
0.24202674
0.24170877
0.24139020
0.24107154
0.24075342
0.24043493
0.24011667
0.23979809
0.23947943
0.23916128
0.23884281
0.23852455
0.23820594
0.23788727
0.23756883
0.23725033
0.23693207
0.23661317
0.23629507
0.23597634
0.23565784
0.23533925
0.23502093
0.23470196
0.23438378
0.23406499
0.23374643
0.23342779
0.23310937
0.23279035
0.23247210
0.23215354
0.23183461
0.23151619
0.23119743
0.23087893
0.23056034
0.23024140
0.22992298
0.22960393
0.22928540
0.22896681
0.22864788
0.22832943
0.22801096
0.22769214
0.22737326
0.22705459
0.22673589
0.22641713
0.22609828
0.22577969
0.22546102
0.22514203
0.22482325
0.22450469
0.22418579
0.22386686
0.22354813
0.22322935
0.22291051
0.22259190
0.22227294
0.22195393
0.22163515
0.22131631
0.22099742
0.22067876
0.22036004
0.22004094
0.21972182
0.21940293
0.21908424
0.21876524
0.21844647
0.21812761
0.21780870
0.21748976
0.21717073
0.21685194
0.21653283
0.21621392
0.21589495
0.21557596
0.21525718
0.21493804
0.21461914
0.21430018
0.21398117
0.21366210
0.21334297
0.21302405
0.21270481
0.21238580
0.21206674
0.21174817
0.21142900
0.21110974
0.21079074
0.21047166
0.21015254
0.20983335
0.20951412
0.20919540
0.20887633
0.20855722
0.20823804
0.20791879
0.20759979
0.20728072
0.20696160
0.20664213
0.20632290
0.20600420
0.20568485
0.20536574
0.20504628
0.20472733
0.20440805
0.20408901
0.20376988
0.20345073
0.20313122
0.20281222
0.20249290
0.20217378
0.20185461
0.20153542
0.20121584
0.20089680
0.20057743
0.20025854
0.19993906
0.19961950
0.19930047
0.19898109
0.19866224
0.19834274
0.19802319
0.19770415
0.19738452
0.19706536
0.19674588
0.19642690
0.19610731
0.19578826
0.19546856
0.19514936
0.19482984
0.19451082
0.19419116
0.19387207
0.19355288
0.19323306
0.19291406
0.19259445
0.19227504
0.19195588
0.19163607
0.19131679
0.19099716
0.19067807
0.19035863
0.19003913
0.18971958
0.18940053
0.18908057
0.18876144
0.18844193
0.18812240
0.18780281
0.18748343
0.18716429
0.18684453
0.18652502
0.18620571
0.18588635
0.18556638
0.18524691
0.18492768
0.18460810
0.18428819
0.18396886
0.18364941
0.18332990
0.18301064
0.18269102
0.18237106
0.18205163
0.18173212
0.18141258
0.18109298
0.18077360
0.18045390
0.18013444
0.17981489
0.17949502
0.17917537
0.17885568
0.17853622
0.17821672
0.17789714
0.17757751
0.17725782
0.17693811
0.17661861
0.17629876
0.17597915
0.17565948
0.17533977
0.17502029
0.17470046
0.17438088
0.17406124
0.17374151
0.17342176
0.17310226
0.17278267
0.17246305
0.17214309
0.17182334
0.17150356
0.17118399
0.17086411
0.17054473
0.17022501
0.16990525
0.16958542
0.16926553
0.16894561
0.16862621
0.16830646
0.16798665
0.16766679
0.16734687
0.16702750
0.16670747
0.16638769
0.16606785
0.16574823
0.16542829
0.16510859
0.16478881
0.16446900
0.16414914
0.16382950
0.16350953
0.16318948
0.16286997
0.16255014
0.16223022
0.16191055
0.16159056
0.16127048
0.16095095
0.16063079
0.16031116
0.15999116
0.15967112
0.15935162
0.15903146
0.15871182
0.15839186
0.15807215
0.15775208
0.15743225
0.15711235
0.15679272
0.15647243
0.15615267
0.15583258
0.15551300
0.15519280
0.15487312
0.15455282
0.15423303
0.15391292
0.15359333
0.15327338
0.15295338
0.15263332
0.15231324
0.15199338
0.15167374
0.15135350
0.15103348
0.15071368
0.15039355
0.15007367
0.14975374
0.14943375
0.14911368
0.14879389
0.14847344
0.14815382
0.14783387
