corrn_curve_quartic
1.95408086
1.95292592
1.95176827
1.95061108
1.94945117
1.94829181
1.94713125
1.94596966
1.94480687
1.94364296
1.94247964
1.94131360
1.94014806
1.93897972
1.93781198
1.93664314
1.93547320
1.93430217
1.93313167
1.93195846
1.93078587
1.92961049
1.92843736
1.92726145
1.92608454
1.92490648
1.92372735
1.92254886
1.92136768
1.92018706
1.91900539
1.91782265
1.91663887
1.91545402
1.91426977
1.91308283
1.91189657
1.91070927
1.90951920
1.90832974
1.90713932
1.90594953
1.90475696
1.90356346
1.90237058
1.90117667
1.89998175
1.89878407
1.89758886
1.89639089
1.89519191
1.89399367
1.89279268
1.89159235
1.89039110
1.88918886
1.88798553
1.88678130
1.88557598
1.88436977
1.88316601
1.88195773
1.88075024
1.87954178
1.87833065
1.87712200
1.87591062
1.87470003
1.87348670
1.87227410
1.87106063
1.86984619
1.86863071
1.86741437
1.86619707
1.86498052
1.86376124
1.86254288
1.86132350
1.86010318
1.85888022
1.85765973
1.85643669
1.85521263
1.85398765
1.85276353
1.85154021
1.85031245
1.84908558
1.84785779
1.84662900
1.84540111
1.84417059
1.84294088
1.84171036
1.84047794
1.83924553
1.83801314
1.83677812
1.83554485
1.83430978
1.83307473
1.83183698
1.83060017
1.82936239
1.82812291
1.82688438
1.82564489
1.82440554
1.82316431
1.82192139
1.82067935
1.81943655
1.81819371
1.81694910
1.81570364
1.81445824
1.81321209
1.81196583
1.81071882
1.80947097
1.80822043
1.80697183
1.80572147
1.80447111
1.80322094
1.80196893
1.80071711
1.79946438
1.79821092
1.79695655
1.79570229
1.79444630
1.79318958
1.79193290
1.79067634
1.78941804
1.78815988
1.78690092
1.78564210
1.78438146
1.78312105
1.78186163
1.78059965
1.77933773
1.77807512
1.77681164
1.77554748
1.77428244
1.77301758
1.77175203
1.77048563
1.76921846
1.76795147
1.76668466
1.76541700
1.76414774
1.76287772
1.76160790
1.76033732
1.75906780
1.75779574
1.75652379
1.75525119
1.75397776
1.75270549
1.75143069
1.75015601
1.74888060
1.74760457
1.74632952
1.74505290
1.74377555
1.74249940
1.74122063
1.73994210
1.73866286
1.73738377
1.73610408
1.73482273
1.73354249
1.73226060
1.73097907
1.72969771
1.72841374
1.72713196
1.72584767
1.72456260
1.72327877
1.72199330
1.72070716
1.71942226
1.71813477
1.71684940
1.71556057
1.71427397
1.71298564
1.71169771
1.71040720
1.70911883
1.70782787
1.70653820
1.70524701
1.70395700
1.70266442
1.70137314
1.70007927
1.69878768
1.69749351
1.69620065
1.69490522
1.69361207
1.69231723
1.69102089
1.68972588
1.68842917
1.68713292
1.68583693
1.68453848
1.68324127
1.68194443
1.68064503
1.67934698
1.67804833
1.67674722
1.67544835
1.67414791
1.67284688
1.67154614
1.67024491
1.66894408
1.66764070
1.66633860
1.66503603
1.66373376
1.66242906
1.66112564
1.65982166
1.65851712
1.65721112
1.65590643
1.65460118
1.65329537
1.65198999
1.65068307
1.64937560
1.64806857
1.64676099
1.64545376
1.64414608
1.64283776
1.64152901
1.64021962
1.63891078
1.63759944
1.63628945
1.63497992
1.63366887
1.63235840
1.63104730
1.62973668
1.62842455
1.62711291
1.62580065
1.62448798
1.62317481
1.62186212
1.62054794
1.61923416
1.61792097
1.61660619
1.61529202
1.61397725
1.61266210
1.61134635
1.61003212
1.60871641
1.60740022
1.60608356
1.60476741
1.60345080
1.60213271
1.60081515
1.59949913
1.59818164
1.59686359
1.59554518
1.59422631
1.59290689
1.59159002
1.59026979
1.58895102
1.58763090
1.58631024
1.58499214
1.58367160
1.58235071
1.58102929
1.57970945
1.57838817
1.57706646
1.57574624
1.57442469
1.57310170
1.57178122
1.57045840
1.56913608
1.56781445
1.56649130
1.56516784
1.56384488
1.56252152
1.56119785
1.55987469
1.55855012
1.55722718
1.55590283
1.55457708
1.55325398
1.55192846
1.55060448
1.54927920
1.54795456
1.54662852
1.54530302
1.54397825
1.54265200
1.54132650
1.53999951
1.53867418
1.53734758
1.53602152
1.53469613
1.53336834
1.53204223
1.53071475
1.52938794
1.52806077
1.52673428
1.52540734
1.52407812
1.52275162
1.52142274
1.52009546
1.51876887
1.51743899
1.51611173
1.51478415
1.51345430
1.51212709
1.51079854
1.50946875
1.50814058
1.50681301
1.50548227
1.50415419
1.50282569
1.50149699
1.50016696
1.49883766
1.49750897
1.49618009
1.49484886
1.49352031
1.49219044
1.49086141
1.48953199
1.48820024
1.48687138
1.48554111
1.48421158
1.48288178
1.48155274
1.48022136
1.47889074
1.47756088
1.47623065
1.47490129
1.47357063
1.47224064
1.47091050
1.46957999
1.46825036
1.46691833
1.46558820
1.46425772
1.46292699
1.46159613
1.46026595
1.45893553
1.45760487
1.45627398
1.45494388
1.45361355
1.45228300
1.45095211
1.44962111
1.44829091
1.44696142
1.44563181
1.44430085
1.44296978
1.44163943
1.44030897
1.43897820
1.43764722
1.43631707
1.43498683
1.43365731
1.43232656
1.43099665
1.42966551
1.42833521
1.42700473
1.42567602
1.42434619
1.42301515
1.42168485
1.42035448
1.41902590
1.41769621
1.41636522
1.41503518
1.41370695
1.41237648
1.41104688
1.40971711
1.40838822
1.40705917
1.40572904
1.40440061
1.40307110
1.40174143
1.40041369
1.39908467
1.39775456
1.39642743
1.39509797
1.39376849
1.39244083
1.39111211
1.38978523
1.38845614
1.38712702
1.38579975
1.38447132
1.38314485
1.38181618
1.38048946
1.37916159
1.37783465
1.37650655
1.37518042
1.37385304
1.37252670
1.37119921
1.36987360
1.36854591
1.36722010
1.36589326
1.36456726
1.36324023
1.36191508
1.36059089
1.35926349
1.35793913
1.35661261
1.35528808
1.35396452
1.35263776
1.35131405
1.34998819
1.34866423
1.34734135
1.34601632
1.34469216
1.34336909
1.34204481
1.34072162
1.33939827
1.33807590
1.33675255
1.33543008
1.33410757
1.33278397
1.33146240
1.33014079
1.32881915
1.32749746
1.32617470
1.32485399
1.32353324
1.32221340
1.32089259
1.31957072
1.31825080
1.31693097
1.31561101
1.31429207
1.31297218
1.31165217
1.31033318
1.30901429
1.30769633
1.30637733
1.30505936
1.30374138
1.30242445
1.30110648
1.29978944
1.29847252
1.29715560
1.29583963
1.29452170
1.29320585
1.29188992
1.29057411
1.28925822
1.28794349
1.28662972
1.28531493
1.28400017
1.28268648
1.28137282
1.28005826
1.27874560
1.27743205
1.27611853
1.27480609
1.27349370
1.27218135
1.27086905
1.26955877
1.26824760
1.26693638
1.26562533
1.26431526
1.26300431
1.26169436
1.26038551
1.25907579
1.25776707
1.25645738
1.25514880
1.25384237
1.25253393
1.25122557
1.24991832
1.24861209
1.24730500
1.24599904
1.24469212
1.24338726
1.24208156
1.24077594
1.23947240
1.23816687
1.23686257
1.23555931
1.23425512
1.23295216
1.23165014
1.23034636
1.22904362
1.22774307
1.22644055
1.22514022
1.22383897
1.22253773
1.22123775
1.21993789
1.21863909
1.21733948
1.21604104
1.21474158
1.21344339
1.21214627
1.21084731
1.20955150
1.20825375
1.20695821
1.20566085
1.20436653
1.20307049
1.20177553
1.20048166
1.19918700
1.19789353
1.19659918
1.19530706
1.19401302
1.19272112
1.19143041
1.19013790
1.18884659
1.18755534
1.18626540
1.18497553
1.18368480
1.18239632
1.18110811
1.17981895
1.17853100
1.17724427
1.17595566
1.17466930
1.17338312
1.17209714
1.17081032
1.16952566
1.16824129
1.16695702
1.16567202
1.16438928
1.16310665
1.16182422
1.16054210
1.15925905
1.15797735
1.15669679
1.15541645
1.15413632
1.15285538
1.15157672
1.15029725
1.14901903
1.14774207
1.14646431
1.14518771
1.14391041
1.14263334
1.14135753
1.14008197
1.13880756
1.13753340
1.13625958
1.13498590
1.13371350
1.13244042
1.13116851
1.12989686
1.12862545
1.12735533
1.12608454
1.12481483
1.12354549
1.12227641
1.12100861
1.11974006
1.11847280
1.11720570
1.11593898
1.11467356
1.11340934
1.11214436
1.11087977
1.10961536
1.10835133
1.10708850
1.10582596
1.10456382
1.10330288
1.10204223
1.10078085
1.09952079
1.09826103
1.09700156
1.09574444
1.09448649
1.09322895
1.09197172
1.09071673
1.08946012
1.08820473
1.08694874
1.08569602
1.08444167
1.08318755
1.08193486
1.08068342
1.07943127
1.07818048
1.07693000
1.07567986
1.07443005
1.07318159
1.07193244
1.07068465
1.06943821
1.06819109
1.06694432
1.06569880
1.06445373
1.06320991
1.06196554
1.06072242
1.05947875
1.05823634
1.05699530
1.05575269
1.05451338
1.05327240
1.05203381
1.05079356
1.04955672
1.04831821
1.04708109
1.04584434
1.04460897
1.04337196
1.04213825
1.04090300
1.03967015
1.03843758
1.03720348
1.03597269
1.03474037
1.03351035
1.03228072
1.03104958
1.02982174
1.02859229
1.02736525
1.02613860
1.02491045
1.02368552
1.02246008
1.02123506
1.02001144
1.01878823
1.01756444
1.01634205
1.01512099
1.01390044
1.01267831
1.01145950
1.01024011
1.00902225
1.00780271
1.00658660
1.00537001
1.00415376
1.00293894
1.00172256
1.00050960
0.99929609
0.99808302
0.99687138
0.99566018
0.99444744
0.99323813
0.99202818
0.99081977
0.98961181
0.98840420
0.98719715
0.98599045
0.98478531
0.98357854
0.98237431
0.98117145
0.97996805
0.97876611
0.97756375
0.97636276
0.97516322
0.97396317
0.97276448
0.97156548
0.97036774
0.96917059
0.96797491
0.96677872
0.96558391
0.96438968
0.96319594
0.96200457
0.96081171
0.95962043
0.95842955
0.95723927
0.95604939
0.95486099
0.95367220
0.95248481
0.95129979
0.95011351
0.94892852
0.94774326
0.94655939
0.94537594
0.94419506
0.94301274
0.94183192
0.94065152
0.93947174
0.93829337
0.93711562
0.93593732
0.93476063
0.93358534
0.93240971
0.93123549
0.93006278
0.92888963
0.92771605
0.92654496
0.92537441
0.92420440
0.92303494
0.92186700
0.92069864
0.91953277
0.91836551
0.91719967
0.91603546
0.91487084
0.91370668
0.91254511
0.91138304
0.91022250
0.90906166
0.90790322
0.90674352
0.90558621
0.90442852
0.90327140
0.90211582
0.90096082
0.89980736
0.89865255
0.89750121
0.89634853
0.89519836
0.89404868
0.89289777
0.89175032
0.89060145
0.88945423
0.88830761
0.88716244
0.88601787
0.88487304
0.88373063
0.88258691
0.88144580
0.88030521
0.87916426
0.87802584
0.87688802
0.87574891
0.87461233
0.87347730
0.87234100
0.87120712
0.87007396
0.86893952
0.86780855
0.86667716
0.86554745
0.86441637
0.86328792
0.86216094
0.86103366
0.85990616
0.85878110
0.85765667
0.85653297
0.85541077
0.85428733
0.85316641
0.85204615
0.85092653
0.84980756
0.84869009
0.84757242
0.84645541
0.84534000
0.84422525
0.84311199
0.84199856
0.84088663
0.83977546
0.83866486
0.83755587
0.83644670
0.83533904
0.83423206
0.83312584
0.83202114
0.83091525
0.82981190
0.82870924
0.82760818
0.82650688
0.82540719
0.82430809
0.82320978
0.82211215
0.82101522
0.81991889
0.81882427
0.81773035
0.81663703
0.81554450
0.81445259
0.81336229
0.81227372
0.81118483
0.81009665
0.80900919
0.80792335
0.80683831
0.80575299
0.80467103
0.80358805
0.80250670
0.80142516
0.80034525
0.79926698
0.79818935
0.79711161
0.79603552
0.79496098
0.79388634
0.79281235
0.79173919
0.79066848
0.78959761
0.78852756
0.78745907
0.78639041
0.78532341
0.78425805
0.78319253
0.78212695
0.78106465
0.78000147
0.77893977
0.77787981
0.77681971
0.77576207
0.77470349
0.77364566
0.77259040
0.77153490
0.77048197
0.76942810
0.76837670
0.76732437
0.76627361
0.76522541
0.76417629
0.76312875
0.76208199
0.76103689
0.75999169
0.75894815
0.75790540
0.75686432
0.75582403
0.75478275
0.75374483
0.75270602
0.75166977
0.75063254
0.74959868
0.74856472
0.74753077
0.74649930
0.74546871
0.74443708
0.74340889
0.74237984
0.74135239
0.74032662
0.73930078
0.73827664
0.73725330
0.73623166
0.73520908
0.73418907
0.73316988
0.73215064
0.73113309
0.73011715
0.72910212
0.72808705
0.72707358
0.72606104
0.72505010
0.72404000
0.72302909
0.72202066
0.72101315
0.72000726
0.71900221
0.71799799
0.71699299
0.71599047
0.71498957
0.71398882
0.71298962
0.71199135
0.71099393
0.70999822
0.70900251
0.70800842
0.70701358
0.70602130
0.70503064
0.70404009
0.70305116
0.70206233
0.70107514
0.70008966
0.69910429
0.69811971
0.69713684
0.69615485
0.69517382
0.69419358
0.69321507
0.69223659
0.69126144
0.69028557
0.68931058
0.68833648
0.68736411
0.68639170
0.68542111
0.68445141
0.68348335
0.68251544
0.68155001
0.68058473
0.67962026
0.67865669
0.67769411
0.67673318
0.67577399
0.67481487
0.67385666
0.67289944
0.67194462
0.67098997
0.67003549
0.66908259
0.66813233
0.66718134
0.66623210
0.66528296
0.66433711
0.66339064
0.66244500
0.66150201
0.66055906
0.65961629
0.65867682
0.65773666
0.65679751
0.65586084
0.65492430
0.65398869
0.65305491
0.65212119
0.65119003
0.65025900
0.64932811
0.64840050
0.64747232
0.64654669
0.64562041
0.64469668
0.64377303
0.64285201
0.64193035
0.64101117
0.64009143
0.63917416
0.63825714
0.63734260
0.63642744
0.63551483
0.63460247
0.63369179
0.63278130
0.63187257
0.63096482
0.63005882
0.62915381
0.62824898
0.62734592
0.62644463
0.62554275
0.62464335
0.62374422
0.62284687
0.62195121
0.62105505
0.62016136
0.61926875
0.61837627
0.61748642
0.61659671
0.61570878
0.61482114
0.61393521
0.61305027
0.61216711
0.61128342
0.61040227
0.60952213
0.60864299
0.60776411
0.60688776
0.60601235
0.60513803
0.60426473
0.60339168
0.60252034
0.60165086
0.60078232
0.59991488
0.59904838
0.59818299
0.59731931
0.59645522
0.59559359
0.59473300
0.59387344
0.59301566
0.59215817
0.59130247
0.59044780
0.58959417
0.58874158
0.58789079
0.58704103
0.58619158
0.58534458
0.58449796
0.58365240
0.58280855
0.58196508
0.58112341
0.58028272
0.57944383
0.57860532
0.57776854
0.57693216
0.57609750
0.57526463
0.57443283
0.57360209
0.57277169
0.57194316
0.57111563
0.57028982
0.56946443
0.56864157
0.56781905
0.56699761
0.56617717
0.56535789
0.56453969
0.56372394
0.56290862
0.56209439
0.56128117
0.56047047
0.55965950
0.55885026
0.55804218
0.55723584
0.55643059
0.55562573
0.55482337
0.55402141
0.55321985
0.55242016
0.55162284
0.55082599
0.55002954
0.54923560
0.54844206
0.54765097
0.54685965
0.54606945
0.54528238
0.54449441
0.54370957
0.54292452
0.54214053
0.54135903
0.54057804
0.53979879
0.53901997
0.53824365
0.53746715
0.53669308
0.53591946
0.53514765
0.53437629
0.53360742
0.53283833
0.53207173
0.53130559
0.53054119
0.52977800
0.52901596
0.52825566
0.52749589
0.52673788
0.52598041
0.52522536
0.52447085
0.52371743
0.52296582
0.52221477
0.52146547
0.52071799
0.51997040
0.51922523
0.51848122
0.51773771
0.51699667
0.51625614
0.51551737
0.51477917
0.51404279
0.51330758
0.51257289
0.51184060
0.51110956
0.51037961
0.50965091
0.50892273
0.50819697
0.50747179
0.50674838
0.50602615
0.50530452
0.50458465
0.50386661
0.50314975
0.50243408
0.50171959
0.50100572
0.50029362
0.49958328
0.49887363
0.49816567
0.49745961
0.49675411
0.49604981
0.49534728
0.49464601
0.49394587
0.49324701
0.49254935
0.49185345
0.49115820
0.49046473
0.48977246
0.48908146
0.48839223
0.48770360
0.48701680
0.48633121
0.48564684
0.48496375
0.48428237
0.48360173
0.48292279
0.48224514
0.48156871
0.48089351
0.48021954
0.47954794
0.47887703
0.47820735
0.47753884
0.47687163
0.47620625
0.47554264
0.47487968
0.47421801
0.47355752
0.47289828
0.47224145
0.47158534
0.47092983
0.47027616
0.46962373
0.46897372
0.46832437
0.46767570
0.46702944
0.46638385
0.46574010
0.46509702
0.46445630
0.46381574
0.46317702
0.46254065
0.46190446
0.46126947
0.46063694
0.46000505
0.45937500
0.45874571
0.45811763
0.45749195
0.45686703
0.45624390
0.45562147
0.45500033
0.45438102
0.45376299
0.45314679
0.45253076
0.45191768
0.45130478
0.45069371
0.45008388
0.44947593
0.44886818
0.44826330
0.44765867
0.44705589
0.44645434
0.44585463
0.44525518
0.44465860
0.44406283
0.44346777
0.44287508
0.44228316
0.44169313
0.44110435
0.44051634
0.43993070
0.43934531
0.43876229
0.43818057
0.43759965
0.43702103
0.43644377
0.43586731
0.43529216
0.43471880
0.43414681
0.43357614
0.43300674
0.43243923
0.43187299
0.43130761
0.43074401
0.43018226
0.42962132
0.42906177
0.42850400
0.42794756
0.42739245
0.42683919
0.42628675
0.42573565
0.42518639
0.42463847
0.42409189
0.42354714
0.42300373
0.42246113
0.42191992
0.42138055
0.42084297
0.42030629
0.41977145
0.41923791
0.41870573
0.41817494
0.41764546
0.41711782
0.41659110
0.41606617
0.41554260
0.41502043
0.41450006
0.41398057
0.41346292
0.41294663
0.41243171
0.41191816
0.41140597
0.41089558
0.41038614
0.40987853
0.40937229
0.40886831
0.40836482
0.40786267
0.40736240
0.40686346
0.40636594
0.40586976
0.40537501
0.40488250
0.40439092
0.40390078
0.40341197
0.40292456
0.40243897
0.40195478
0.40147198
0.40099013
0.40051011
0.40003237
0.39955515
0.39907976
0.39860533
0.39813313
0.39766194
0.39719258
0.39672458
0.39625803
0.39579246
0.39532910
0.39486676
0.39440622
0.39394708
0.39348940
0.39303267
0.39257819
0.39212475
0.39167347
0.39122286
0.39077363
0.39032664
0.38988066
0.38943692
0.38899378
0.38855207
0.38811255
0.38767373
0.38723706
0.38680147
0.38636805
0.38593531
0.38550480
0.38507493
0.38464724
0.38422063
0.38379620
0.38337243
0.38295091
0.38253079
0.38211134
0.38169449
0.38127835
0.38086400
0.38045147
0.38003963
0.37962999
0.37922143
0.37881506
0.37840978
0.37800594
0.37760355
0.37720333
0.37680348
0.37640620
0.37600997
0.37561523
0.37522196
0.37483047
0.37444080
0.37405191
0.37366485
0.37327957
0.37289575
0.37251273
0.37213185
0.37175279
0.37137484
0.37099806
0.37062348
0.37025031
0.36987860
0.36950872
0.36913997
0.36877236
0.36840690
0.36804290
0.36768040
0.36731939
0.36696017
0.36660212
0.36624590
0.36589113
0.36553755
0.36518575
0.36483548
0.36448699
0.36414002
0.36379452
0.36345051
0.36310799
0.36276701
0.36242780
0.36208978
0.36175357
0.36141887
0.36108566
0.36075427
0.36042407
0.36009569
0.35976881
0.35944341
0.35911954
0.35879749
0.35847691
0.35815788
0.35784006
0.35752403
0.35720954
0.35689682
0.35658537
0.35627597
0.35596781
0.35566120
0.35535608
0.35505249
0.35475044
0.35445046
0.35415172
0.35385450
0.35355882
0.35326466
0.35297258
0.35268149
0.35239220
0.35210444
0.35181846
0.35153377
0.35125088
0.35096951
0.35068969
0.35041142
0.35013492
0.34985973
0.34958606
0.34931445
0.34904414
0.34877536
0.34850838
0.34824271
0.34797858
0.34771648
0.34745548
0.34719648
0.34693880
0.34668267
0.34642858
0.34617556
0.34592455
0.34567489
0.34542702
0.34518048
0.34493573
0.34469252
0.34445112
0.34421084
0.34397254
0.34373562
0.34350068
0.34326689
0.34303509
0.34280445
0.34257579
0.34234850
0.34212320
0.34189926
0.34167689
0.34145610
0.34123692
0.34101949
0.34080383
0.34058938
0.34037670
0.34016578
0.33995626
0.33974853
0.33954239
0.33933783
0.33913483
0.33893364
0.33873366
0.33853582
0.33833940
