corrn_curve_quartic
1.10474674
1.10735582
1.10995384
1.11253368
1.11510250
1.11765308
1.12018938
1.12271105
1.12521851
1.12771160
1.13018679
1.13265112
1.13509783
1.13753389
1.13995228
1.14235657
1.14474680
1.14712301
1.14948199
1.15183028
1.15416128
1.15648180
1.15878198
1.16107175
1.16334763
1.16560998
1.16785867
1.17009051
1.17231186
1.17451663
1.17670793
1.17888579
1.18105025
1.18320135
1.18533618
1.18746068
1.18956886
1.19166387
1.19374874
1.19581762
1.19787327
1.19991306
1.20194283
1.20395948
1.20596044
1.20794853
1.20992380
1.21188912
1.21383598
1.21577297
1.21769728
1.21960615
1.22150520
1.22338906
1.22526027
1.22711900
1.22896542
1.23079930
1.23262094
1.23443010
1.23622185
1.23800660
1.23977653
1.24153428
1.24328232
1.24501330
1.24673475
1.24844168
1.25013911
1.25182225
1.25349336
1.25515260
1.25680014
1.25843576
1.26005961
1.26166949
1.26327005
1.26485650
1.26643147
1.26799487
1.26954890
1.27108712
1.27261591
1.27413337
1.27563944
1.27713195
1.27861110
1.28008321
1.28154191
1.28298940
1.28442583
1.28584902
1.28726311
1.28866416
1.29005411
1.29143418
1.29280228
1.29415848
1.29550567
1.29683916
1.29816284
1.29947477
1.30077789
1.30206838
1.30334831
1.30461844
1.30587611
1.30712331
1.30835899
1.30958519
1.31080172
1.31200613
1.31320007
1.31438288
1.31555624
1.31671930
1.31787127
1.31901293
1.32014374
1.32126433
1.32237482
1.32347684
1.32456638
1.32564672
1.32671636
1.32777520
1.32882500
1.32986407
1.33089338
1.33191281
1.33292253
1.33392178
1.33491205
1.33589256
1.33686277
1.33782266
1.33877368
1.33971445
1.34064571
1.34156682
1.34247922
1.34338147
1.34427309
1.34515662
1.34603025
1.34689454
1.34774965
1.34859547
1.34943216
1.35025908
1.35107682
1.35188553
1.35268517
1.35347520
1.35425566
1.35502722
1.35579038
1.35654462
1.35728944
1.35802542
1.35875157
1.35946997
1.36017915
1.36087957
1.36157135
1.36225348
1.36292794
1.36359337
1.36425023
1.36489852
1.36553745
1.36616836
1.36679082
1.36740397
1.36800966
1.36860656
1.36919515
1.36977506
1.37034668
1.37091050
1.37146534
1.37201243
1.37255094
1.37308100
1.37360377
1.37411735
1.37462364
1.37512198
1.37561163
1.37609372
1.37656791
1.37703354
1.37749202
1.37794172
1.37838461
1.37881877
1.37924556
1.37966433
1.38007605
1.38047925
1.38087545
1.38126349
1.38164424
1.38201695
1.38238272
1.38274049
1.38309135
1.38343403
1.38376985
1.38409782
1.38441895
1.38473209
1.38503822
1.38533732
1.38562877
1.38591327
1.38619039
1.38646021
1.38672331
1.38697897
1.38722741
1.38746920
1.38770365
1.38793115
1.38815203
1.38836553
1.38857232
1.38877225
1.38896523
1.38915139
1.38933066
1.38950345
1.38966927
1.38982840
1.38998077
1.39012671
1.39026583
1.39039838
1.39052437
1.39064390
1.39075677
1.39086316
1.39096310
1.39105655
1.39114366
1.39122440
1.39129874
1.39136675
1.39142842
1.39148382
1.39153299
1.39157594
1.39161269
1.39164325
1.39166770
1.39168600
1.39169820
1.39170434
1.39170444
1.39169852
1.39168662
1.39166875
1.39164495
1.39161524
1.39157964
1.39153817
1.39149089
1.39143776
1.39137887
1.39131426
1.39124386
1.39116780
1.39108604
1.39099861
1.39090553
1.39080698
1.39070276
1.39059297
1.39047762
1.39035684
1.39023056
1.39009870
1.38996148
1.38981905
1.38967111
1.38951778
1.38935910
1.38919508
1.38902573
1.38885149
1.38867160
1.38848672
1.38829650
1.38810107
1.38790091
1.38769531
1.38748458
1.38726874
1.38704815
1.38682233
1.38659147
1.38635594
1.38611527
1.38586943
1.38561920
1.38536369
1.38510345
1.38483856
1.38456859
1.38429381
1.38401440
1.38373021
1.38344127
1.38314779
1.38284935
1.38254668
1.38223910
1.38192662
1.38161023
1.38128874
1.38096312
1.38063271
1.38029801
1.37995852
1.37961476
1.37926681
1.37891411
1.37855725
1.37819568
1.37783026
1.37746021
1.37708606
1.37670787
1.37632478
1.37593798
1.37554662
1.37515130
1.37475175
1.37434830
1.37394063
1.37352819
1.37311255
1.37269215
1.37226825
1.37184059
1.37140790
1.37097214
1.37053235
1.37008790
1.36964047
1.36918872
1.36873271
1.36827344
1.36781058
1.36734284
1.36687227
1.36639782
1.36591958
1.36543717
1.36495133
1.36446207
1.36396909
1.36347162
1.36297156
1.36246741
1.36196002
1.36144895
1.36093344
1.36041555
1.35989362
1.35936853
1.35883987
1.35830809
1.35777197
1.35723275
1.35669047
1.35614468
1.35559592
1.35504330
1.35448766
1.35392868
1.35336628
1.35280101
1.35223148
1.35165956
1.35108430
1.35050576
1.34992400
1.34933940
1.34875158
1.34816055
1.34756634
1.34696941
1.34636932
1.34576611
1.34515972
1.34455029
1.34393824
1.34332356
1.34270588
1.34208465
1.34146045
1.34083369
1.34020400
1.33957130
1.33893565
1.33829757
1.33765664
1.33701326
1.33636651
1.33571740
1.33506494
1.33441017
1.33375259
1.33309319
1.33243057
1.33176466
1.33109648
1.33042563
1.32975307
1.32907734
1.32839836
1.32771730
1.32703461
1.32634824
1.32565978
1.32496874
1.32427565
1.32358001
1.32288134
1.32218111
1.32147789
1.32077217
1.32006507
1.31935490
1.31864178
1.31792789
1.31721042
1.31649061
1.31576947
1.31504546
1.31432017
1.31359140
1.31286037
1.31212811
1.31139299
1.31065674
1.30991708
1.30917633
1.30843276
1.30768756
1.30693957
1.30619057
1.30543875
1.30468543
1.30392937
1.30317230
1.30241200
1.30165073
1.30088684
1.30012142
1.29935341
1.29858450
1.29781417
1.29704001
1.29626568
1.29548815
1.29470987
1.29393026
1.29314686
1.29236339
1.29157677
1.29078942
1.29000088
1.28920923
1.28841629
1.28762219
1.28682557
1.28602783
1.28522824
1.28442748
1.28362439
1.28282011
1.28201409
1.28120570
1.28039686
1.27958632
1.27877409
1.27796019
1.27714398
1.27632741
1.27550920
1.27468994
1.27386850
1.27304481
1.27222077
1.27139523
1.27056806
1.26974000
1.26890982
1.26807805
1.26724543
1.26641139
1.26557646
1.26473940
1.26390154
1.26306224
1.26222218
1.26138004
1.26053708
1.25969281
1.25884715
1.25800072
1.25715167
1.25630262
1.25545216
1.25460045
1.25374737
1.25289374
1.25203943
1.25118318
1.25032567
1.24946759
1.24860828
1.24774713
1.24688599
1.24602305
1.24515891
1.24429428
1.24342849
1.24256154
1.24169345
1.24082555
1.23995590
1.23908508
1.23821323
1.23734092
1.23646691
1.23559247
1.23471767
1.23384120
1.23296434
1.23208576
1.23120687
1.23032838
1.22944752
1.22856568
1.22768357
1.22680115
1.22591716
1.22503294
1.22414709
1.22326168
1.22237474
1.22148691
1.22059954
1.21970990
1.21882018
1.21793025
1.21703878
1.21614726
1.21525550
1.21436166
1.21346766
1.21257431
1.21167876
1.21078387
1.20988752
1.20899035
1.20809324
1.20719541
1.20629750
1.20539825
1.20449903
1.20359833
1.20269775
1.20179716
1.20089454
1.19999337
1.19909012
1.19818769
1.19728328
1.19638028
1.19547538
1.19457055
1.19366579
1.19275981
1.19185400
1.19094692
1.19004074
1.18913259
1.18822529
1.18731820
1.18640923
1.18550050
1.18459120
1.18368223
1.18277272
1.18186202
1.18095234
1.18004228
1.17913099
1.17822000
1.17730934
1.17639680
1.17548533
1.17457347
1.17366123
1.17274789
1.17183557
1.17092298
1.17000996
1.16909595
1.16818307
1.16726981
1.16635622
1.16544241
1.16452749
1.16361309
1.16269907
1.16178478
1.16087023
1.15995468
1.15904036
1.15812506
1.15721027
1.15629599
1.15538075
1.15446597
1.15355032
1.15263448
1.15171920
1.15080373
1.14988876
1.14897362
1.14805841
1.14714297
1.14622813
1.14531249
1.14439739
1.14348217
1.14256684
1.14165215
1.14073669
1.13982174
1.13890678
1.13799174
1.13707738
1.13616221
1.13524773
1.13433313
1.13341857
1.13250471
1.13159149
1.13067751
1.12976359
1.12884960
1.12793568
1.12702243
1.12610920
1.12519606
1.12428362
1.12337121
1.12245810
1.12154578
1.12063351
1.11972130
1.11881064
1.11789924
1.11698800
1.11607683
1.11516717
1.11425620
1.11334600
1.11243524
1.11152674
1.11061697
1.10970725
1.10879847
1.10789050
1.10698194
1.10607427
1.10516676
1.10425942
1.10335224
1.10244598
1.10153916
1.10063327
1.09972831
1.09882281
1.09791752
1.09701310
1.09610897
1.09520572
1.09430204
1.09339925
1.09249604
1.09159373
1.09069241
1.08978994
1.08888987
1.08798858
1.08708904
1.08618831
1.08529005
1.08439062
1.08349220
1.08259409
1.08169700
1.08079876
1.07990295
1.07900607
1.07811097
1.07721612
1.07632021
1.07542675
1.07453225
1.07363948
1.07274706
1.07185360
1.07096262
1.07007055
1.06918029
1.06829042
1.06739953
1.06651106
1.06562233
1.06473398
1.06384675
1.06295993
1.06207278
1.06118676
1.06030181
1.05941734
1.05853185
1.05764888
1.05676562
1.05588358
1.05500046
1.05411996
1.05323924
1.05235890
1.05147974
1.05059959
1.04972207
1.04884428
1.04796697
1.04709084
1.04621520
1.04533859
1.04446462
1.04359035
1.04271736
1.04184487
1.04097279
1.04010130
1.03923023
1.03836046
1.03748970
1.03662096
1.03575337
1.03488560
1.03401906
1.03315241
1.03228694
1.03142271
1.03055831
1.02969509
1.02883184
1.02796971
1.02710821
1.02624796
1.02538757
1.02452837
1.02366981
1.02281181
1.02195572
1.02109879
1.02024322
1.01938815
1.01853373
1.01767982
1.01682721
1.01597454
1.01512311
1.01427360
1.01342342
1.01257441
1.01172543
1.01087769
1.01003049
1.00918536
1.00833945
1.00749485
1.00665080
1.00580743
1.00496532
1.00412389
1.00328233
1.00244216
1.00160325
1.00076434
0.99992669
0.99909038
0.99825401
0.99741758
0.99658319
0.99574943
0.99491633
0.99408387
0.99325276
0.99242161
0.99159249
0.99076265
0.98993409
0.98910694
0.98827977
0.98745320
0.98662873
0.98580417
0.98498097
0.98415782
0.98333664
0.98251483
0.98169500
0.98087517
0.98005601
0.97923821
0.97842109
0.97760534
0.97678891
0.97597520
0.97516082
0.97434849
0.97353677
0.97272446
0.97191487
0.97110456
0.97029568
0.96948749
0.96868061
0.96787442
0.96706833
0.96626421
0.96545945
0.96465681
0.96385479
0.96305281
0.96225287
0.96145364
0.96065378
0.95985595
0.95905951
0.95826243
0.95746733
0.95667301
0.95587807
0.95508583
0.95429357
0.95350275
0.95271126
0.95192187
0.95113379
0.95034576
0.94955785
0.94877191
0.94798669
0.94720224
0.94641911
0.94563538
0.94485367
0.94407269
0.94329242
0.94251287
0.94173463
0.94095652
0.94017912
0.93940310
0.93862780
0.93785380
0.93707993
0.93630737
0.93553559
0.93476446
0.93399471
0.93322509
0.93245677
0.93168916
0.93092234
0.93015682
0.92939073
0.92862665
0.92786328
0.92710127
0.92633934
0.92557877
0.92481885
0.92405970
0.92330128
0.92254357
0.92178651
0.92103086
0.92027594
0.91952166
0.91876815
0.91801530
0.91726380
0.91651370
0.91576361
0.91501424
0.91426557
0.91351825
0.91277169
0.91202515
0.91128115
0.91053665
0.90979349
0.90905040
0.90830864
0.90756821
0.90682842
0.90608877
0.90535044
0.90461337
0.90387644
0.90314014
0.90240460
0.90167094
0.90093734
0.90020450
0.89947291
0.89874139
0.89801118
0.89728227
0.89655343
0.89582472
0.89509842
0.89437169
0.89364614
0.89292194
0.89219781
0.89147551
0.89075273
0.89003062
0.88931041
0.88859019
0.88787187
0.88715305
0.88643606
0.88571858
0.88500230
0.88428791
0.88357302
0.88285933
0.88214630
0.88143453
0.88072280
0.88001233
0.87930251
0.87859395
0.87788602
0.87717753
0.87647144
0.87576484
0.87506007
0.87435475
0.87365179
0.87294887
0.87224604
0.87154497
0.87084459
0.87014358
0.86944498
0.86874586
0.86804790
0.86735115
0.86665442
0.86595889
0.86526397
0.86457025
0.86387595
0.86318343
0.86249151
0.86179960
0.86110887
0.86041927
0.85973031
0.85904135
0.85835350
0.85766630
0.85698020
0.85629468
0.85560863
0.85492425
0.85424051
0.85355785
0.85287576
0.85219424
0.85151216
0.85083174
0.85015241
0.84947316
0.84879492
0.84811728
0.84744019
0.84676421
0.84608820
0.84541323
0.84473770
0.84406386
0.84339105
0.84271825
0.84204649
0.84137473
0.84070400
0.84003435
0.83936469
0.83869548
0.83802734
0.83735970
0.83669261
0.83602596
0.83536037
0.83469469
0.83403115
0.83336700
0.83270332
0.83204012
0.83137796
0.83071563
0.83005440
0.82939362
0.82873381
0.82807394
0.82741559
0.82675718
0.82609916
0.82544157
0.82478448
0.82412832
0.82347316
0.82281785
0.82216297
0.82150856
0.82085558
0.82020249
0.81954931
0.81889698
0.81824623
0.81759475
0.81694422
0.81629352
0.81564483
0.81499545
0.81434639
0.81369888
0.81305112
0.81240323
0.81175731
0.81111063
0.81046436
0.80981950
0.80917443
0.80852970
0.80788591
0.80724185
0.80659922
0.80595637
0.80531328
0.80467212
0.80403021
0.80338972
0.80274843
0.80210854
0.80146834
0.80082959
0.80019003
0.79955179
0.79891279
0.79827511
0.79763720
0.79700060
0.79636316
0.79572709
0.79509077
0.79445519
0.79381930
0.79318421
0.79254935
0.79191527
0.79128141
0.79064723
0.79001381
0.78938116
0.78874761
0.78811530
0.78748271
0.78685085
0.78621968
0.78558765
0.78495684
0.78432626
0.78369525
0.78306555
0.78243541
0.78180598
0.78117620
0.78054706
0.77991806
0.77928975
0.77866047
0.77803242
0.77740448
0.77677667
0.77614842
0.77552137
0.77489436
0.77426751
0.77364075
0.77301353
0.77238688
0.77176091
0.77113496
0.77050913
0.76988331
0.76925760
0.76863243
0.76800627
0.76738119
0.76675614
0.76613113
0.76550668
0.76488171
0.76425730
0.76363290
0.76300850
0.76238411
0.76176025
0.76113638
0.76051195
0.75988853
0.75926459
0.75864062
0.75801710
0.75739305
0.75676949
0.75614582
0.75552264
0.75489890
0.75427558
0.75365169
0.75302821
0.75240519
0.75178207
0.75115885
0.75053498
0.74991161
0.74928806
0.74866488
0.74804108
0.74741824
0.74679471
0.74617104
0.74554716
0.74492318
0.74429904
0.74367577
0.74305183
0.74242771
0.74180335
0.74117990
0.74055520
0.73993080
0.73930624
0.73868196
0.73805746
0.73743218
0.73680777
0.73618257
0.73555656
0.73493092
0.73430601
0.73368034
0.73305385
0.73242818
0.73180168
0.73117595
0.73054886
0.72992148
0.72929539
0.72866739
0.72804067
0.72741258
0.72678409
0.72615638
0.72552783
0.72489942
0.72427010
0.72364153
0.72301154
0.72238222
0.72175197
0.72112188
0.72049084
0.71986052
0.71922867
0.71859752
0.71796540
0.71733335
0.71670092
0.71606805
0.71543524
0.71480147
0.71416775
0.71353305
0.71289895
0.71226387
0.71162824
0.71099268
0.71035611
0.70971955
0.70908303
0.70844493
0.70780737
0.70716928
0.70653008
0.70589147
0.70525174
0.70461196
0.70397110
0.70333024
0.70268880
0.70204619
0.70140408
0.70076143
0.70011811
0.69947423
0.69882916
0.69818455
0.69753878
0.69689289
0.69624636
0.69559864
0.69495078
0.69430283
0.69365420
0.69300489
0.69235488
0.69170366
0.69105225
0.69040065
0.68974786
0.68909481
0.68844167
0.68778721
0.68713200
0.68647655
0.68582041
0.68516343
0.68450574
0.68384726
0.68318852
0.68252845
0.68186810
0.68120694
0.68054502
0.67988280
0.67921915
0.67855526
0.67789051
0.67722491
0.67655850
0.67589169
0.67522353
0.67455496
0.67388555
0.67321524
0.67254402
0.67187188
0.67119997
0.67052658
0.66985224
0.66917690
0.66850067
0.66782408
0.66714707
0.66646847
0.66578895
0.66510837
0.66442679
0.66374543
0.66306251
0.66237788
0.66169283
0.66100675
0.66032085
0.65963329
0.65894404
0.65825496
0.65756418
0.65687294
0.65617999
0.65548712
0.65479195
0.65409629
0.65340070
0.65270278
0.65200366
0.65130472
0.65060393
0.64990260
0.64919953
0.64849522
0.64779099
0.64708500
0.64637838
0.64566990
0.64496021
0.64424993
0.64353841
0.64282630
0.64211164
0.64139766
0.64068112
0.63996396
0.63924544
0.63852635
0.63780465
0.63708354
0.63635987
0.63563553
0.63490980
0.63418337
0.63345435
0.63272589
0.63199546
0.63126294
0.63053035
0.62979572
0.62906042
0.62832364
0.62758478
0.62684584
0.62610412
0.62536231
0.62461905
0.62387366
0.62312809
0.62238111
0.62163198
0.62088135
0.62012984
0.61937690
0.61862243
0.61786638
0.61710954
0.61635110
0.61559049
0.61482895
0.61406653
0.61330184
0.61253564
0.61176848
0.61099971
0.61022934
0.60945805
0.60868443
0.60790918
0.60713299
0.60635515
0.60557565
0.60479519
0.60401306
0.60322845
0.60244222
0.60165501
0.60086672
0.60007607
0.59928441
0.59849094
0.59769573
0.59689883
0.59610010
0.59530032
0.59449810
0.59369475
0.59288960
0.59208271
0.59127468
0.59046408
0.58965238
0.58883884
0.58802345
0.58720619
0.58638707
0.58556674
0.58474384
0.58391980
0.58309386
0.58226743
0.58143765
0.58060586
0.57977296
0.57893803
0.57810122
0.57726237
0.57642161
0.57558033
0.57473628
0.57389031
0.57304225
0.57219216
0.57134082
0.57048743
0.56963200
0.56877372
0.56791416
0.56705410
0.56619038
0.56532535
0.56445742
0.56358888
0.56271751
0.56184480
0.56096988
0.56009288
0.55921292
0.55833232
0.55744881
0.55656385
0.55567669
0.55478741
0.55389501
0.55300202
0.55210606
0.55120934
0.55030888
0.54940607
0.54850266
0.54759613
0.54668898
0.54577786
0.54486442
0.54395027
0.54303227
0.54211345
0.54119153
0.54026886
0.53934221
0.53841489
0.53748347
0.53655129
0.53561594
0.53467981
0.53373952
0.53279863
0.53185521
0.53090760
0.52996014
0.52900855
0.52805527
0.52710039
0.52614123
0.52518134
0.52421804
0.52325400
0.52228652
0.52131650
0.52034393
0.51937049
0.51839187
0.51741337
0.51643128
0.51544667
0.51445945
0.51347043
0.51247969
0.51148456
0.51048770
0.50948901
0.50848765
0.50748184
0.50647510
0.50546659
0.50445444
0.50343872
0.50242224
0.50140284
0.50038068
0.49935671
0.49832903
0.49729760
0.49626529
0.49523009
0.49419218
0.49315145
0.49210875
0.49106235
0.49001407
0.48896283
0.48790784
0.48685085
0.48579106
0.48472927
0.48366467
0.48259704
0.48152649
0.48045300
0.47937666
0.47829826
0.47721589
0.47613154
0.47504421
0.47395387
0.47286154
0.47176517
0.47066679
0.46956538
0.46846081
0.46735328
0.46624372
0.46513097
0.46401524
0.46289537
0.46177332
0.46064826
0.45952101
0.45838967
0.45725719
0.45612049
0.45498073
0.45383767
0.45269142
0.45154208
0.45039156
0.44923675
0.44807870
0.44691741
0.44575286
0.44458723
0.44341614
0.44224286
0.44106628
0.43988740
0.43870420
0.43751878
0.43632992
0.43513783
0.43394238
0.43274457
0.43154237
0.43033667
0.42912983
0.42791856
0.42670376
0.42548668
0.42426512
0.42304000
0.42181372
0.42058177
0.41934854
0.41811066
0.41686928
0.41562671
0.41437829
0.41312856
0.41187423
0.41061752
0.40935607
0.40809222
0.40682467
0.40555484
0.40427901
0.40300184
0.40171996
0.40043673
0.39914756
0.39785703
0.39656052
0.39526264
0.39395997
0.39265593
0.39134695
0.39003425
0.38871781
0.38739775
0.38607505
0.38474971
0.38341835
0.38208433
0.38074764
0.37940601
0.37806182
0.37671380
0.37536195
0.37400612
0.37264783
0.37128311
0.36991823
0.36854830
