corrn_curve_linear
2.55264197
2.55057071
2.54849660
2.54642535
2.54435124
2.54228013
2.54020887
2.53813776
2.53606650
2.53399525
2.53192699
2.52985588
2.52778762
2.52571636
2.52364811
2.52157985
2.51951159
2.51744333
2.51537792
2.51330967
2.51124441
2.50917615
2.50711374
2.50504833
2.50298307
2.50091767
2.49885226
2.49678985
2.49472459
2.49266218
2.49059977
2.48853737
2.48647496
2.48441255
2.48235299
2.48029058
2.47823117
2.47617176
2.47410936
2.47204980
2.46999039
2.46793383
2.46587427
2.46381486
2.46175830
2.45970175
2.45764519
2.45558563
2.45353207
2.45147551
2.44941895
2.44736539
2.44530883
2.44325513
2.44120157
2.43914801
2.43709430
2.43504074
2.43298703
2.43093347
2.42888576
2.42683205
2.42478135
2.42273064
2.42067708
2.41862937
2.41657866
2.41453095
2.41248024
2.41043238
2.40838467
2.40633696
2.40428911
2.40224140
2.40019369
2.39814883
2.39610097
2.39405626
2.39201140
2.38996654
2.38791883
2.38587682
2.38383211
2.38178725
2.37974240
2.37770054
2.37566153
2.37361667
2.37157481
2.36953295
2.36749094
2.36545193
2.36341007
2.36137106
2.35933220
2.35729169
2.35525268
2.35321517
2.35117481
2.34913880
2.34710129
2.34506528
2.34302628
2.34099027
2.33895411
2.33691660
2.33488209
2.33284743
2.33081442
2.32877976
2.32674375
2.32471059
2.32267758
2.32064592
2.31861276
2.31657960
2.31454794
2.31251643
2.31048612
2.30845596
2.30642580
2.30439264
2.30236398
2.30033382
2.29830501
2.29627785
2.29424904
2.29222188
2.29019457
2.28816741
2.28614010
2.28411429
2.28208698
2.28005982
2.27803401
2.27600970
2.27398389
2.27195958
2.26993527
2.26791246
2.26588800
2.26386519
2.26184523
2.25982242
2.25780096
2.25577965
2.25375819
2.25173688
2.24971542
2.24769546
2.24567565
2.24365569
2.24163573
2.23961727
2.23760031
2.23558320
2.23356473
2.23154627
2.22952931
2.22751235
2.22549824
2.22348128
2.22146567
2.21945021
2.21743460
2.21542199
2.21340653
2.21139242
2.20937831
2.20736435
2.20535309
2.20334048
2.20132787
2.19931826
2.19730564
2.19529453
2.19328342
2.19127366
2.18926405
2.18725294
2.18524468
2.18323492
2.18122681
2.17922005
2.17721029
2.17520503
2.17319691
2.17118865
2.16918339
2.16717663
2.16516987
2.16316611
2.16115935
2.15915694
2.15715018
2.15514792
2.15314401
2.15114174
2.14913648
2.14713557
2.14513166
2.14313075
2.14112849
2.13912908
2.13712667
2.13512726
2.13312484
2.13112693
2.12912602
2.12712811
2.12512720
2.12313079
2.12113273
2.11913332
2.11713690
2.11513884
2.11314243
2.11114737
2.10914946
2.10715440
2.10516084
2.10316427
2.10117071
2.09917715
2.09718074
2.09518868
2.09319512
2.09120156
2.08920934
2.08721728
2.08522672
2.08323316
2.08124245
2.07925189
2.07726267
2.07527061
2.07328140
2.07129219
2.06930298
2.06731242
2.06532470
2.06333699
2.06134928
2.05936307
2.05737536
2.05538765
2.05340143
2.05141522
2.04943036
2.04744565
2.04546079
2.04347607
2.04149121
2.03950800
2.03752179
2.03553843
2.03355656
2.03157320
2.02959149
2.02760963
2.02562927
2.02364740
2.02166704
2.01968653
2.01770617
2.01572581
2.01374694
2.01176658
2.00978757
2.00781021
2.00583120
2.00385383
2.00187632
1.99989896
1.99792145
1.99594693
1.99397092
1.99199491
1.99001890
1.98804438
1.98606987
1.98409386
1.98211935
1.98014784
1.97817482
1.97620166
1.97422865
1.97225564
1.97028247
1.96831381
1.96634080
1.96437064
1.96239912
1.96042746
1.95846030
1.95649014
1.95452012
1.95254996
1.95058280
1.94861414
1.94664547
1.94467966
1.94271250
1.94074383
1.93877952
1.93681236
1.93484655
1.93288238
1.93091657
1.92895091
1.92698660
1.92502228
1.92305812
1.92109531
1.91913099
1.91716968
1.91520687
1.91324256
1.91128274
1.90931993
1.90735997
1.90539865
1.90343884
1.90147753
1.89951757
1.89755925
1.89559929
1.89364098
1.89168101
1.88972405
1.88776574
1.88580877
1.88385331
1.88189485
1.87993938
1.87798242
1.87602696
1.87407149
1.87211753
1.87016342
1.86820646
1.86625399
1.86429853
1.86234592
1.86039480
1.85843934
1.85648823
1.85453711
1.85258315
1.85063354
1.84868242
1.84672996
1.84478035
1.84283208
1.84087962
1.83893150
1.83698324
1.83503513
1.83308551
1.83113740
1.82919064
1.82724402
1.82529441
1.82334915
1.82140238
1.81945727
1.81751201
1.81556374
1.81362013
1.81167486
1.80973110
1.80778734
1.80584507
1.80389981
1.80195605
1.80001378
1.79807137
1.79613061
1.79418834
1.79224743
1.79030666
1.78836575
1.78642649
1.78448407
1.78254481
1.78060539
1.77866598
1.77672672
1.77478880
1.77285089
1.77091297
1.76897506
1.76703865
1.76510223
1.76316582
1.76122925
1.75929284
1.75735793
1.75542436
1.75349095
1.75155588
1.74962097
1.74768741
1.74575399
1.74382043
1.74188686
1.73995480
1.73802288
1.73609232
1.73416026
1.73222969
1.73029763
1.72836706
1.72643650
1.72450878
1.72257972
1.72064916
1.71871994
1.71679088
1.71486466
1.71293710
1.71100788
1.70908032
1.70715561
1.70522789
1.70330168
1.70137546
1.69945075
1.69752603
1.69559997
1.69367660
1.69175189
1.68982717
1.68790546
1.68598210
1.68405738
1.68213717
1.68021380
1.67829059
1.67637022
1.67444851
1.67252964
1.67060778
1.66868606
1.66676720
1.66484683
1.66292947
1.66100910
1.65909174
1.65717287
1.65525551
1.65333664
1.65142078
1.64950326
1.64758740
1.64567003
1.64375552
1.64183816
1.63992364
1.63800778
1.63609326
1.63417740
1.63226438
1.63035286
1.62843685
1.62652533
1.62461082
1.62269930
1.62078929
1.61887477
1.61696476
1.61505174
1.61314158
1.61123306
1.60932155
1.60741138
1.60550287
1.60359270
1.60168419
1.59977552
1.59786836
1.59595984
1.59405268
1.59214551
1.59023685
1.58833118
1.58642552
1.58451985
1.58261418
1.58070702
1.57880285
1.57689869
1.57499587
1.57309171
1.57118604
1.56928323
1.56738056
1.56547775
1.56357643
1.56167376
1.55977095
1.55786963
1.55596847
1.55406865
1.55216734
1.55026752
1.54836770
1.54646939
1.54456957
1.54267111
1.54077279
1.53887448
1.53697751
1.53507769
1.53318088
1.53128391
1.52938710
1.52749013
1.52559482
1.52370085
1.52180538
1.51990992
1.51801595
1.51612199
1.51422667
1.51233405
1.51044009
1.50854612
1.50665366
1.50476119
1.50286872
1.50097626
1.49908664
1.49719568
1.49530456
1.49341359
1.49152398
1.48963301
1.48774340
1.48585528
1.48396581
1.48207770
1.48018808
1.47829997
1.47641485
1.47452673
1.47263862
1.47075200
1.46886673
1.46698012
1.46509500
1.46320839
1.46132462
1.45943950
1.45755439
1.45567212
1.45378685
1.45190324
1.45002097
1.44813720
1.44625509
1.44437417
1.44249056
1.44060829
1.43872902
1.43684676
1.43496749
1.43308672
1.43120581
1.42932654
1.42744727
1.42556936
1.42369009
1.42181232
1.41993291
1.41805514
1.41617872
1.41429946
1.41242454
1.41054662
1.40867171
1.40679394
1.40492037
1.40304411
1.40116919
1.39929562
1.39742071
1.39554729
1.39367237
1.39180046
1.38992554
1.38805347
1.38618291
1.38430949
1.38243757
1.38056550
1.37869509
1.37682452
1.37495245
1.37308339
1.37121447
1.36934390
1.36747484
1.36560727
1.36373670
1.36186913
1.36000157
1.35813400
1.35626493
1.35439872
1.35253265
1.35066643
1.34879886
1.34693430
1.34506958
1.34320486
1.34134030
1.33947408
1.33760951
1.33574629
1.33388308
1.33201986
1.33015514
1.32829343
1.32643021
1.32456849
1.32270827
1.32084656
1.31898619
1.31712447
1.31526275
1.31340254
1.31154232
1.30968345
1.30782458
1.30596587
1.30410700
1.30224963
1.30039091
1.29853355
1.29667618
1.29481881
1.29296294
1.29110573
1.28924971
1.28739384
1.28553797
1.28368361
1.28182774
1.27997337
1.27811885
1.27626448
1.27441162
1.27256010
1.27070708
1.26885421
1.26700120
1.26514833
1.26329681
1.26144529
1.25959393
1.25774391
1.25589389
1.25404237
1.25219235
1.25034234
1.24849232
1.24664530
1.24479663
1.24294811
1.24109960
1.23925393
1.23740541
1.23555824
1.23370972
1.23186556
1.23001854
1.22817137
1.22632585
1.22448168
1.22263602
1.22079185
1.21894768
1.21710351
1.21525934
1.21341668
1.21157251
1.20972984
1.20788867
1.20604600
1.20420333
1.20236202
1.20052085
1.19868103
1.19683986
1.19500004
1.19315887
1.19131906
1.18948074
1.18763957
1.18580275
1.18396293
1.18212611
1.18028630
1.17845098
1.17661266
1.17477584
1.17293902
1.17110370
1.16926539
1.16743142
1.16559460
1.16376078
1.16192681
1.16008999
1.15825752
1.15642221
1.15458974
1.15275727
1.15092195
1.14909098
1.14725701
1.14542604
1.14359507
1.14176126
1.13993164
1.13810067
1.13626970
1.13444023
1.13261076
1.13077979
1.12895033
1.12712221
1.12529424
1.12346327
1.12163665
1.11980853
1.11798206
1.11615244
1.11432732
1.11250086
1.11067424
1.10884912
1.10702100
1.10519738
1.10337226
1.10154714
1.09972352
1.09789990
1.09607328
1.09425117
1.09242740
1.09060528
1.08878316
1.08696089
1.08513877
1.08331650
1.08149588
1.07967211
1.07785149
1.07603222
1.07421146
1.07239219
1.07057157
1.06875230
1.06693453
1.06511526
1.06329734
1.06147822
1.05966030
1.05784253
1.05602626
1.05420849
1.05239207
1.05057580
1.04875954
1.04694612
1.04512970
1.04331493
1.04150001
1.03968524
1.03787032
1.03605690
1.03424213
1.03242871
1.03061814
1.02880487
1.02699280
1.02517953
1.02336761
1.02155554
1.01974662
1.01793470
1.01612428
1.01431371
1.01250329
1.01069423
1.00888531
1.00707474
1.00526582
1.00345825
1.00164933
0.99984176
0.99803569
0.99622812
0.99441905
0.99261298
0.99080691
0.98900084
0.98719477
0.98539020
0.98358413
0.98178106
0.97997499
0.97817027
0.97636720
0.97456263
0.97275791
0.97095634
0.96915312
0.96735140
0.96554833
0.96374811
0.96194504
0.96014482
0.95834310
0.95654138
0.95474116
0.95294094
0.95114222
0.94934050
0.94754328
0.94574306
0.94394584
0.94214847
0.94034825
0.93855253
0.93675366
0.93495644
0.93315922
0.93136335
0.92956748
0.92777026
0.92597589
0.92417852
0.92238430
0.92058993
0.91879406
0.91700118
0.91520831
0.91341244
0.91161957
0.90982820
0.90803383
0.90624231
0.90445094
0.90265657
0.90086670
0.89907518
0.89728531
0.89549229
0.89370242
0.89191390
0.89012388
0.88833251
0.88654399
0.88475547
0.88296710
0.88118008
0.87939005
0.87760303
0.87581601
0.87402899
0.87224197
0.87045630
0.86866928
0.86688226
0.86509674
0.86331122
0.86152705
0.85974153
0.85795736
0.85617334
0.85438916
0.85260649
0.85082247
0.84903980
0.84725713
0.84547461
0.84369344
0.84190927
0.84012810
0.83834693
0.83656726
0.83478608
0.83300641
0.83122659
0.82944692
0.82766725
0.82588758
0.82410776
0.82232959
0.82055142
0.81877310
0.81699492
0.81521660
0.81343978
0.81166461
0.80988779
0.80811097
0.80633415
0.80455883
0.80278366
0.80100683
0.79923436
0.79745904
0.79568522
0.79390990
0.79213608
0.79036376
0.78859129
0.78681746
0.78504514
0.78327417
0.78150185
0.77972938
0.77795706
0.77618759
0.77441661
0.77264579
0.77087632
0.76910535
0.76733588
0.76556791
0.76379844
0.76202761
0.76026099
0.75849167
0.75672355
0.75495708
0.75318911
0.75142399
0.74965601
0.74788804
0.74612307
0.74435645
0.74259283
0.74082636
0.73906273
0.73729626
0.73553114
0.73376902
0.73200405
0.73024043
0.72847680
0.72671468
0.72495106
0.72318894
0.72142682
0.71966620
0.71790557
0.71614195
0.71438268
0.71262056
0.71086144
0.70909931
0.70734154
0.70558227
0.70382165
0.70206388
0.70030626
0.69854548
0.69678921
0.69503009
0.69327232
0.69151605
0.68975827
0.68800200
0.68624573
0.68449096
0.68273319
0.68097841
0.67922364
0.67746737
0.67571260
0.67395917
0.67220590
0.67045113
0.66869771
0.66694444
0.66519251
0.66344059
0.66168582
0.65993390
0.65818213
0.65643170
0.65468128
0.65293086
0.65117759
0.64942716
0.64767809
0.64592782
0.64417875
0.64242982
0.64068090
0.63893348
0.63718456
0.63543699
0.63368656
0.63193914
0.63019307
0.62844565
0.62669957
0.62495215
0.62320608
0.62146151
0.61971558
0.61796951
0.61622494
0.61448037
0.61273594
0.61099137
0.60924830
0.60750373
0.60576350
0.60402043
0.60227736
0.60053428
0.59879271
0.59704949
0.59530792
0.59356634
0.59182612
0.59008455
0.58834583
0.58660575
0.58486553
0.58312531
0.58138523
0.57964651
0.57790929
0.57617057
0.57443184
0.57269327
0.57095740
0.56922017
0.56748160
0.56574423
0.56401001
0.56227278
0.56053706
0.55879984
0.55706696
0.55533124
0.55359537
0.55186265
0.55012827
0.54839255
0.54666118
0.54492680
0.54319258
0.54146121
0.53972833
0.53799546
0.53626424
0.53453136
0.53280149
0.53107012
0.52933725
0.52760872
0.52587735
0.52414898
0.52241760
0.52068923
0.51895921
0.51723233
0.51550246
0.51377544
0.51204556
0.51031854
0.50859017
0.50686464
0.50513612
0.50341060
0.50168372
0.49995820
0.49823118
0.49650565
0.49478013
0.49305611
0.49133208
0.48960656
0.48788254
0.48616001
0.48443449
0.48271182
0.48098779
0.47926527
0.47754409
0.47582007
0.47409890
0.47237787
0.47065520
0.46893568
0.46721450
0.46549483
0.46377381
0.46205413
0.46033446
0.45861629
0.45689511
0.45517694
0.45345876
0.45174059
0.45002092
0.44830424
0.44658742
0.44487075
0.44315407
0.44143590
0.43971907
0.43800390
0.43628858
0.43457340
0.43285808
0.43114290
0.42942908
0.42771241
0.42599858
0.42428476
0.42257094
0.42085861
0.41914479
0.41743246
0.41572014
0.41400782
0.41229549
0.41058467
0.40887384
0.40716152
0.40545205
0.40374122
0.40203040
0.40032092
0.39861010
0.39690078
0.39519130
0.39348333
0.39177400
0.39006603
0.38835670
0.38664873
0.38494226
0.38323578
0.38152931
0.37982133
0.37811501
0.37640853
0.37470341
0.37299694
0.37129346
0.36958849
0.36788351
0.36617839
0.36447341
0.36276844
0.36106632
0.35936284
0.35765937
0.35595574
0.35425512
0.35255164
0.35084952
0.34914755
0.34744692
0.34574630
0.34404417
0.34234505
0.34064442
0.33894230
0.33724182
0.33554405
0.33384492
0.33214430
0.33044668
0.32874755
0.32705128
0.32535215
0.32365303
0.32195825
0.32025913
0.31856435
0.31686673
0.31516895
0.31347418
0.31177805
0.31008328
0.30838700
0.30669373
0.30499761
0.30330433
0.30160956
0.29991628
0.29822151
0.29652973
0.29483496
0.29314318
0.29144991
0.28975798
0.28806621
0.28637443
0.28468401
0.28299223
0.28130181
0.27961003
0.27792111
0.27623083
0.27454041
0.27285148
0.27116121
0.26947228
0.26778486
0.26609458
0.26440716
0.26271973
0.26103081
0.25934488
0.25765746
0.25597138
0.25428396
0.25259803
0.25091211
0.24922468
0.24754011
0.24585568
0.24417111
0.24248668
0.24080076
0.23911768
0.23743325
0.23575018
0.23406710
0.23238268
0.23069960
0.22901803
0.22733645
0.22565488
0.22397330
0.22229038
0.22060880
0.21892858
0.21724715
0.21556693
0.21388835
0.21220827
0.21052820
0.20884947
0.20717090
0.20549217
0.20381360
0.20213502
0.20045780
0.19877922
0.19710200
0.19542477
0.19374769
0.19207197
0.19039474
0.18871902
0.18704329
0.18536757
0.18369199
0.18201762
0.18034204
0.17866766
0.17699344
0.17531921
0.17364499
0.17197076
0.17029939
0.16862666
0.16695393
0.16528106
0.16360833
0.16193711
0.16026723
0.15859585
0.15692463
0.15525325
0.15358188
0.15191350
0.15024378
0.14857240
0.14690252
0.14523265
0.14356577
0.14189740
0.14022752
0.13856064
0.13689227
0.13522539
0.13355702
0.13189149
0.13022311
0.12855624
0.12689221
0.12522534
0.12355831
0.12189443
0.12022891
0.11856488
0.11689951
0.11523398
0.11357145
0.11190758
0.11024505
0.10858103
0.10691700
0.10525447
0.10359195
0.10193092
0.10026689
0.09860737
0.09694484
0.09528382
0.09362264
0.09196311
0.09030059
0.08864241
0.08698138
0.08532186
0.08366218
0.08200401
0.08034298
0.07868630
0.07702828
0.07536860
0.07371192
0.07205375
0.07039722
0.06874054
0.06708237
0.06542719
0.06376901
0.06211384
0.06045866
0.05880199
0.05714816
0.05549448
0.05383931
0.05218413
0.05053030
0.04887663
0.04722295
0.04556912
0.04391695
0.04226462
0.04061094
0.03895862
0.03730779
0.03565546
0.03400329
0.03235246
0.03070163
0.02905081
0.02740148
0.02575065
0.02409983
0.02245050
0.02080117
0.01915185
0.01750402
0.01585619
0.01420672
0.01255739
0.01090956
0.00926308
0.00761526
0.00596893
0.00432245
0.00267598
0.00102965
-0.00061683
-0.00226180
-0.00390813
-0.00555311
-0.00719808
-0.00884291
-0.01048639
-0.01213137
-0.01377484
-0.01541832
-0.01706180
-0.01870527
-0.02034875
-0.02199088
-0.02363435
-0.02527633
-0.02691831
-0.02855744
-0.03019941
-0.03184154
-0.03348202
-0.03512264
-0.03676312
-0.03840375
-0.04004423
-0.04168185
-0.04332098
-0.04495996
-0.04659909
-0.04823821
-0.04987584
-0.05151347
-0.05315109
-0.05479022
-0.05642785
-0.05806248
-0.05970010
-0.06133623
-0.06297386
-0.06460864
-0.06624476
-0.06787939
-0.06951417
-0.07114880
-0.07278492
-0.07441820
-0.07605283
-0.07768611
-0.07931938
-0.08095251
-0.08258729
-0.08421907
-0.08585219
-0.08748262
-0.08911575
-0.09074903
-0.09237930
-0.09401108
-0.09563986
-0.09727164
-0.09890341
-0.10053234
-0.10216397
-0.10379290
-0.10542317
-0.10705060
-0.10868088
-0.11030816
-0.11193843
-0.11356586
-0.11519464
-0.11682057
-0.11844950
-0.12007527
-0.12170120
-0.12333013
-0.12495456
-0.12658183
-0.12820776
-0.12983219
-0.13145962
-0.13308405
-0.13470997
-0.13633290
-0.13795733
-0.13958176
-0.14120619
-0.14282776
-0.14445369
-0.14607512
-0.14769820
-0.14932112
-0.15094405
-0.15256563
-0.15418571
-0.15580864
-0.15743006
-0.15905014
-0.16067022
-0.16229315
-0.16391323
-0.16553181
-0.16715188
-0.16877331
-0.17039159
-0.17201017
-0.17362875
-0.17524582
-0.17686440
-0.17848448
-0.18010156
-0.18171879
-0.18333586
-0.18495294
-0.18656867
-0.18818575
-0.18980133
-0.19141706
-0.19303413
-0.19464986
-0.19626544
-0.19787967
-0.19949375
-0.20110798
-0.20272220
-0.20433643
-0.20595051
-0.20756324
-0.20917747
-0.21079020
-0.21240292
-0.21401565
-0.21562688
-0.21723961
-0.21885084
-0.22046207
-0.22207344
-0.22368467
-0.22529440
-0.22690428
-0.22851401
-0.23012524
-0.23173512
-0.23334484
-0.23495322
-0.23656295
-0.23816983
-0.23977821
-0.24138644
-0.24299482
-0.24460319
-0.24621142
-0.24781680
-0.24942368
-0.25103056
-0.25263744
-0.25424432
-0.25584820
-0.25745507
-0.25906045
-0.26066583
-0.26226986
-0.26387524
-0.26547912
-0.26708315
-0.26868703
-0.27029090
-0.27189343
-0.27349731
-0.27510134
-0.27670237
-0.27830475
-0.27990728
-0.28150831
-0.28311069
-0.28471321
-0.28631274
-0.28791512
-0.28951465
-0.29111568
-0.29271671
-0.29431474
-0.29591577
-0.29751395
-0.29911347
-0.30071150
-0.30231103
-0.30390906
-0.30550724
-0.30710377
-0.30870330
-0.31029998
-0.31189801
-0.31349319
-0.31509122
-0.31668639
-0.31828442
-0.31987960
-0.32147613
-0.32306981
-0.32466499
-0.32626017
-0.32785535
-0.32945038
-0.33104406
-0.33263639
-0.33423142
-0.33582509
-0.33741742
-0.33901110
-0.34060328
-0.34219546
-0.34378764
-0.34537997
-0.34697065
-0.34856433
-0.35015366
-0.35174434
