corrn_curve_quartic
0.82092345
0.82506565
0.82919660
0.83330500
0.83740218
0.84147661
0.84553456
0.84957547
0.85359995
0.85760775
0.86159311
0.86556735
0.86951955
0.87346094
0.87738010
0.88128281
0.88516908
0.88903895
0.89288714
0.89672432
0.90053964
0.90434424
0.90812189
0.91188886
0.91563940
0.91937410
0.92309270
0.92678988
0.93047613
0.93414134
0.93779061
0.94142397
0.94504147
0.94864312
0.95222402
0.95579409
0.95934325
0.96287672
0.96639966
0.96990209
0.97338867
0.97685489
0.98031063
0.98375062
0.98717039
0.99057475
0.99396374
0.99734228
1.00069567
1.00403868
1.00736642
1.01067411
1.01397142
1.01724901
1.02051126
1.02375842
1.02699076
1.03020785
1.03341016
1.03659728
1.03976044
1.04291797
1.04605603
1.04917928
1.05229205
1.05538122
1.05846019
1.06151998
1.06456959
1.06760034
1.07061629
1.07361769
1.07660479
1.07957716
1.08253507
1.08547446
1.08840375
1.09131418
1.09421050
1.09709254
1.09996429
1.10281384
1.10565296
1.10847810
1.11128909
1.11408185
1.11685669
1.11962544
1.12237611
1.12511280
1.12783574
1.13054078
1.13323572
1.13591305
1.13857638
1.14122808
1.14386407
1.14648441
1.14909471
1.15168580
1.15426517
1.15682907
1.15938316
1.16191996
1.16444344
1.16695511
1.16944965
1.17193097
1.17439692
1.17685153
1.17929443
1.18172062
1.18413338
1.18653134
1.18891787
1.19129123
1.19364970
1.19599490
1.19832566
1.20064321
1.20294776
1.20524271
1.20751963
1.20978532
1.21203661
1.21427323
1.21649884
1.21870985
1.22090827
1.22309379
1.22526676
1.22742545
1.22957309
1.23170793
1.23382876
1.23593548
1.23803121
1.24011290
1.24218212
1.24423737
1.24628189
1.24831236
1.25032764
1.25233346
1.25432564
1.25630543
1.25827312
1.26022847
1.26217178
1.26410150
1.26601896
1.26792448
1.26981793
1.27169795
1.27356459
1.27541941
1.27726353
1.27909572
1.28091467
1.28272176
1.28451450
1.28629796
1.28806847
1.28982710
1.29157415
1.29330693
1.29503050
1.29674129
1.29844047
1.30012795
1.30180165
1.30346495
1.30511677
1.30675468
1.30838361
1.30999992
1.31160486
1.31319738
1.31477847
1.31634944
1.31790694
1.31945436
1.32098930
1.32251206
1.32402593
1.32552530
1.32701571
1.32849515
1.32996136
1.33141764
1.33286294
1.33429513
1.33571852
1.33712795
1.33852955
1.33991717
1.34129512
1.34266115
1.34401845
1.34536207
1.34669699
1.34801923
1.34933171
1.35063170
1.35192303
1.35320186
1.35447204
1.35572886
1.35697706
1.35821293
1.35944020
1.36065431
1.36185903
1.36305420
1.36423724
1.36541094
1.36657340
1.36772482
1.36886764
1.36999864
1.37111861
1.37223012
1.37332983
1.37441946
1.37550055
1.37656925
1.37762873
1.37867821
1.37971701
1.38074580
1.38176390
1.38277363
1.38377206
1.38476057
1.38573860
1.38670824
1.38766673
1.38861549
1.38955453
1.39048451
1.39140350
1.39231286
1.39321261
1.39410211
1.39498271
1.39585377
1.39671467
1.39756608
1.39840746
1.39923935
1.40006189
1.40087499
1.40167879
1.40247259
1.40325827
1.40403353
1.40479895
1.40555572
1.40630264
1.40704044
1.40776853
1.40848804
1.40919789
1.40989871
1.41059042
1.41127309
1.41194622
1.41261088
1.41326611
1.41391187
1.41454924
1.41517720
1.41579633
1.41640658
1.41700804
1.41759981
1.41818327
1.41875798
1.41932396
1.41988081
1.42042900
1.42096894
1.42149984
1.42202134
1.42253466
1.42303947
1.42353571
1.42402344
1.42450270
1.42497244
1.42543476
1.42588801
1.42633318
1.42677000
1.42719750
1.42761733
1.42802883
1.42843207
1.42882646
1.42921293
1.42959118
1.42996072
1.43032236
1.43067612
1.43102101
1.43135831
1.43168730
1.43200799
1.43232093
1.43262584
1.43292257
1.43321135
1.43349217
1.43376490
1.43402995
1.43428674
1.43453590
1.43477741
1.43501059
1.43523635
1.43545404
1.43566415
1.43586640
1.43606112
1.43624805
1.43642719
1.43659887
1.43676281
1.43691931
1.43706803
1.43720932
1.43734302
1.43746915
1.43758800
1.43769924
1.43780314
1.43789957
1.43798863
1.43807028
1.43814462
1.43821174
1.43827143
1.43832395
1.43836915
1.43840710
1.43843793
1.43846152
1.43847797
1.43848729
1.43848949
1.43848460
1.43847263
1.43845363
1.43842763
1.43839456
1.43835458
1.43830764
1.43825377
1.43819293
1.43812524
1.43805072
1.43796935
1.43788101
1.43778606
1.43768424
1.43757574
1.43746048
1.43733830
1.43720970
1.43707431
1.43693235
1.43678374
1.43662863
1.43646667
1.43629823
1.43612337
1.43594194
1.43575415
1.43555971
1.43535892
1.43515169
1.43493799
1.43471806
1.43449137
1.43425865
1.43401955
1.43377412
1.43352237
1.43326450
1.43300035
1.43272994
1.43245328
1.43217062
1.43188176
1.43158671
1.43128549
1.43097813
1.43066490
1.43034579
1.43002063
1.42968913
1.42935161
1.42900830
1.42865901
1.42830371
1.42794243
1.42757550
1.42720267
1.42682420
1.42643955
1.42604933
1.42565295
1.42525105
1.42484334
1.42443045
1.42401151
1.42358648
1.42315602
1.42271987
1.42227867
1.42183150
1.42137828
1.42091981
1.42045641
1.41998668
1.41951174
1.41903124
1.41854556
1.41805437
1.41755733
1.41705550
1.41654785
1.41603474
1.41551702
1.41499344
1.41446409
1.41393061
1.41339090
1.41284589
1.41229637
1.41174117
1.41118151
1.41061571
1.41004471
1.40946933
1.40888829
1.40830297
1.40771157
1.40711593
1.40651470
1.40590882
1.40529736
1.40468178
1.40406061
1.40343493
1.40280373
1.40216847
1.40152726
1.40088204
1.40023140
1.39957629
1.39891578
1.39825136
1.39758259
1.39690737
1.39622889
1.39554451
1.39485639
1.39416402
1.39346524
1.39276334
1.39205559
1.39134416
1.39062866
1.38990733
1.38918184
1.38845232
1.38771753
1.38697875
1.38623531
1.38548787
1.38473534
1.38397878
1.38321769
1.38245147
1.38168196
1.38090797
1.38012951
1.37934661
1.37855865
1.37776751
1.37697197
1.37617263
1.37536835
1.37455908
1.37374669
1.37293005
1.37210905
1.37128442
1.37045493
1.36962113
1.36878376
1.36794223
1.36709711
1.36624713
1.36539366
1.36453604
1.36367497
1.36280911
1.36193976
1.36106639
1.36018896
1.35930810
1.35842188
1.35753304
1.35664013
1.35574331
1.35484244
1.35393840
1.35303107
1.35211910
1.35120323
1.35028420
1.34936129
1.34843387
1.34750392
1.34656949
1.34563124
1.34468995
1.34374487
1.34279604
1.34184345
1.34088857
1.33992930
1.33896625
1.33799960
1.33702996
1.33605598
1.33507906
1.33409929
1.33311522
1.33212826
1.33113694
1.33014284
1.32914679
1.32814562
1.32714094
1.32613355
1.32512341
1.32410908
1.32309210
1.32207087
1.32104776
1.32002052
1.31898988
1.31795743
1.31691997
1.31588007
1.31483759
1.31379096
1.31274194
1.31169031
1.31063390
1.30957498
1.30851452
1.30744913
1.30638223
1.30531129
1.30423707
1.30316063
1.30208103
1.30099908
1.29991322
1.29882512
1.29773297
1.29663870
1.29554215
1.29444088
1.29333913
1.29223259
1.29112481
1.29001235
1.28889940
1.28778189
1.28666223
1.28554044
1.28441492
1.28328739
1.28215607
1.28102368
1.27988661
1.27874841
1.27760830
1.27646363
1.27531706
1.27416761
1.27301639
1.27186231
1.27070455
1.26954591
1.26838464
1.26721964
1.26605287
1.26488436
1.26371130
1.26253746
1.26136099
1.26018189
1.25899922
1.25781576
1.25662981
1.25544119
1.25424915
1.25305648
1.25186118
1.25066337
1.24946315
1.24825937
1.24705417
1.24584739
1.24463815
1.24342648
1.24221141
1.24099587
1.23977696
1.23855665
1.23733495
1.23610990
1.23488341
1.23365368
1.23242164
1.23118828
1.22995263
1.22871560
1.22747630
1.22623485
1.22499106
1.22374605
1.22249791
1.22124848
1.21999686
1.21874307
1.21748813
1.21623012
1.21497079
1.21370943
1.21244596
1.21118142
1.20991376
1.20864506
1.20737419
1.20610138
1.20482756
1.20355265
1.20227469
1.20099484
1.19971290
1.19842909
1.19714426
1.19585747
1.19456885
1.19327926
1.19198775
1.19069329
1.18939799
1.18810082
1.18680179
1.18550302
1.18420125
1.18289776
1.18159245
1.18028736
1.17897847
1.17766875
1.17635632
1.17504521
1.17373035
1.17241364
1.17109639
1.16977841
1.16845766
1.16713630
1.16581327
1.16448859
1.16316226
1.16183538
1.16050580
1.15917568
1.15784506
1.15651176
1.15517689
1.15384143
1.15250453
1.15116707
1.14982710
1.14848660
1.14714361
1.14580011
1.14445623
1.14310879
1.14176308
1.14041372
1.13906512
1.13771290
1.13636257
1.13500864
1.13365442
1.13229882
1.13094296
1.12958352
1.12822596
1.12686495
1.12550485
1.12414332
1.12277837
1.12141537
1.12004897
1.11868342
1.11731662
1.11594645
1.11457829
1.11320667
1.11183607
1.11046428
1.10908916
1.10771601
1.10634068
1.10496420
1.10358769
1.10221005
1.10083015
1.09945027
1.09807030
1.09668936
1.09530506
1.09392299
1.09253871
1.09115464
1.08976714
1.08838202
1.08699487
1.08560659
1.08421845
1.08282704
1.08143808
1.08004702
1.07865500
1.07726318
1.07587042
1.07447445
1.07308100
1.07168539
1.07029015
1.06889403
1.06749692
1.06609906
1.06470023
1.06330183
1.06190018
1.06050012
1.05910030
1.05769852
1.05629710
1.05489386
1.05349089
1.05208832
1.05068383
1.04927965
1.04787382
1.04646818
1.04506196
1.04365619
1.04224857
1.04084131
1.03943350
1.03802503
1.03661811
1.03520823
1.03379900
1.03238902
1.03097855
1.02956736
1.02815674
1.02674449
1.02533271
1.02392259
1.02250982
1.02109743
1.01968357
1.01827023
1.01685626
1.01544425
1.01402939
1.01261522
1.01120045
1.00978533
1.00837080
1.00695594
1.00553935
1.00412361
1.00270851
1.00129195
0.99987603
0.99846089
0.99704419
0.99562594
0.99420968
0.99279306
0.99137608
0.98995877
0.98854231
0.98712434
0.98570842
0.98428984
0.98287202
0.98145522
0.98003696
0.97861831
0.97720189
0.97578391
0.97436687
0.97294855
0.97153223
0.97011347
0.96869674
0.96727863
0.96586034
0.96444304
0.96302558
0.96160914
0.96019018
0.95877462
0.95735656
0.95594074
0.95452469
0.95310628
0.95169131
0.95027377
0.94885744
0.94744104
0.94602564
0.94461018
0.94319361
0.94177924
0.94036247
0.93894816
0.93753372
0.93611809
0.93470482
0.93329156
0.93187596
0.93046274
0.92905074
0.92763642
0.92622440
0.92481255
0.92339840
0.92198788
0.92057614
0.91916579
0.91775306
0.91634292
0.91493396
0.91352394
0.91211299
0.91070442
0.90929600
0.90788786
0.90648094
0.90507183
0.90366527
0.90225889
0.90085270
0.89944673
0.89804202
0.89663647
0.89523115
0.89382725
0.89242358
0.89102123
0.88961808
0.88821625
0.88681481
0.88541354
0.88401374
0.88261317
0.88121396
0.87981507
0.87841662
0.87701955
0.87562046
0.87422407
0.87282803
0.87143352
0.87003820
0.86864443
0.86725092
0.86585792
0.86446531
0.86307310
0.86168119
0.86029098
0.85890120
0.85751173
0.85612282
0.85473424
0.85334728
0.85196207
0.85057604
0.84919049
0.84780542
0.84642201
0.84503921
0.84365564
0.84227596
0.84089458
0.83951489
0.83813457
0.83675596
0.83537905
0.83400259
0.83262564
0.83125041
0.82987682
0.82850275
0.82712916
0.82575628
0.82438621
0.82301559
0.82164570
0.82027748
0.81890873
0.81754178
0.81617662
0.81481096
0.81344492
0.81208278
0.81071923
0.80935728
0.80799729
0.80663683
0.80527926
0.80392020
0.80256186
0.80120654
0.79985068
0.79849784
0.79714356
0.79579221
0.79443943
0.79308843
0.79174050
0.79039115
0.78904362
0.78769686
0.78635204
0.78500688
0.78366366
0.78232124
0.78098079
0.77964115
0.77830006
0.77696311
0.77562484
0.77428969
0.77295311
0.77162070
0.77028801
0.76895517
0.76762537
0.76629656
0.76496626
0.76364026
0.76231301
0.76098769
0.75966441
0.75834092
0.75701949
0.75569899
0.75438055
0.75306081
0.75174427
0.75042869
0.74911294
0.74779929
0.74648763
0.74517705
0.74386634
0.74255763
0.74125003
0.73994445
0.73863987
0.73733418
0.73603164
0.73473024
0.73343087
0.73213254
0.73083526
0.72953691
0.72824174
0.72694862
0.72565568
0.72436470
0.72307491
0.72178621
0.72049970
0.71921318
0.71792875
0.71664334
0.71536125
0.71408126
0.71280141
0.71152367
0.71024608
0.70897062
0.70769740
0.70642434
0.70515233
0.70388258
0.70261399
0.70134668
0.70008045
0.69881648
0.69755262
0.69629310
0.69503271
0.69377353
0.69251556
0.69125989
0.69000425
0.68875102
0.68749902
0.68624923
0.68499971
0.68375349
0.68250754
0.68126274
0.68001921
0.67877705
0.67753713
0.67629955
0.67506218
0.67382611
0.67259143
0.67135996
0.67012884
0.66889807
0.66766947
0.66644440
0.66521854
0.66399507
0.66277187
0.66155306
0.66033360
0.65911538
0.65790071
0.65668625
0.65547220
0.65426256
0.65305220
0.65184332
0.65063780
0.64943262
0.64822883
0.64702759
0.64582660
0.64462909
0.64343194
0.64223518
0.64104284
0.63984996
0.63866056
0.63747054
0.63628401
0.63509779
0.63391518
0.63273196
0.63155214
0.63037184
0.62919494
0.62801859
0.62684566
0.62567216
0.62450218
0.62333277
0.62216576
0.62099924
0.61983522
0.61867272
0.61751272
0.61635424
0.61519627
0.61404083
0.61288791
0.61173452
0.61058456
0.60943524
0.60828847
0.60714414
0.60599946
0.60485823
0.60371866
0.60257957
0.60144411
0.60030915
0.59917674
0.59804503
0.59691578
0.59578813
0.59466305
0.59353760
0.59241571
0.59129543
0.59017675
0.58905871
0.58794424
0.58683129
0.58572006
0.58461045
0.58350151
0.58239508
0.58129135
0.58018917
0.57908873
0.57798984
0.57689271
0.57579810
0.57470333
0.57361205
0.57252244
0.57143450
0.57034919
0.56926461
0.56818267
0.56710241
0.56602385
0.56494699
0.56387277
0.56280025
0.56172850
0.56066025
0.55959286
0.55852720
0.55746409
0.55640188
0.55534233
0.55428441
0.55322916
0.55217482
0.55112306
0.55007221
0.54902394
0.54797835
0.54693451
0.54589243
0.54485120
0.54381275
0.54277598
0.54174180
0.54070858
0.53967896
0.53865021
0.53762325
0.53659800
0.53557463
0.53455307
0.53353501
0.53251795
0.53150269
0.53048916
0.52947923
0.52846942
0.52746224
0.52645697
0.52545432
0.52445351
0.52345364
0.52245738
0.52146207
0.52046774
0.51947621
0.51848811
0.51750108
0.51651503
0.51553258
0.51455112
0.51357318
0.51259545
0.51161961
0.51064813
0.50967604
0.50870832
0.50774085
0.50677518
0.50581311
0.50485217
0.50389389
0.50293665
0.50198301
0.50102967
0.50007984
0.49913108
0.49818506
0.49724013
0.49629879
0.49535770
0.49442019
0.49348379
0.49255006
0.49161835
0.49068857
0.48976147
0.48883556
0.48791235
0.48699034
0.48607183
0.48515454
0.48423912
0.48332647
0.48241505
0.48150633
0.48060037
0.47969485
0.47879283
0.47789278
0.47699390
0.47609860
0.47520448
0.47431306
0.47342291
0.47253555
0.47165017
0.47076599
0.46988531
0.46900670
0.46813001
0.46725540
0.46638202
0.46551213
0.46464354
0.46377767
0.46291381
0.46205127
0.46119145
0.46033441
0.45947940
0.45862641
0.45777545
0.45692584
0.45607894
0.45523477
0.45439202
0.45355192
0.45271469
0.45187875
0.45104486
0.45021368
0.44938463
0.44855756
0.44773262
0.44690974
0.44608958
0.44527083
0.44445479
0.44364083
0.44282900
0.44201990
0.44121215
0.44040719
0.43960431
0.43880351
0.43800487
0.43720888
0.43641440
0.43562258
0.43483292
0.43404536
0.43325988
0.43247651
0.43169656
0.43091808
0.43014170
0.42936736
0.42859519
0.42782582
0.42705917
0.42629395
0.42553091
0.42476991
0.42401104
0.42325564
0.42250175
0.42174923
0.42099952
0.42025194
0.41950782
0.41876516
0.41802396
0.41728623
0.41654997
0.41581650
0.41508451
0.41435591
0.41362821
0.41290331
0.41218178
0.41146117
0.41074264
0.41002761
0.40931403
0.40860324
0.40789403
0.40718691
0.40648322
0.40578112
0.40508175
0.40438391
0.40368823
0.40299535
0.40230463
0.40161670
0.40092970
0.40024673
0.39956469
0.39888545
0.39820831
0.39753403
0.39686071
0.39619133
0.39552298
0.39485741
0.39419398
0.39353332
0.39287372
0.39221803
0.39156400
0.39091150
0.39026238
0.38961487
0.38897019
0.38832765
0.38768673
0.38704917
0.38641265
0.38577948
0.38514852
0.38451919
0.38389314
0.38326936
0.38264722
0.38202728
0.38141007
0.38079512
0.38018238
0.37957180
0.37896404
0.37835844
0.37775457
0.37715340
0.37655500
0.37595828
0.37536383
0.37477209
0.37418258
0.37359528
0.37301075
0.37242791
0.37184730
0.37126945
0.37069382
0.37012043
0.36954979
0.36898137
0.36841463
0.36785017
0.36728846
0.36672945
0.36617221
0.36561772
0.36506542
0.36451536
0.36396759
0.36342201
0.36287917
0.36233813
0.36179978
0.36126367
0.36072986
0.36019873
0.35966936
0.35914273
0.35861834
0.35809621
0.35757633
0.35705869
0.35654374
0.35603062
0.35552022
0.35501208
0.35450707
0.35400343
0.35350201
0.35300335
0.35250691
0.35201276
0.35152084
0.35103122
0.35054471
0.35006001
0.34957762
0.34909745
0.34861954
0.34814434
0.34767140
0.34720072
0.34673188
0.34626574
0.34580271
0.34534111
0.34488219
0.34442512
0.34397112
0.34351901
0.34306959
0.34262239
0.34217750
0.34173448
0.34129451
0.34085644
0.34042100
0.33998784
0.33955699
0.33912799
0.33870204
0.33827802
0.33785696
0.33743749
0.33702026
0.33660607
0.33619378
0.33578452
0.33537678
0.33497132
0.33456885
0.33416799
0.33377007
0.33337411
0.33298111
0.33258970
0.33220130
0.33181445
0.33143057
0.33104865
0.33066967
0.33029228
0.32991790
0.32954576
0.32917522
0.32880798
0.32844238
0.32807937
0.32771897
0.32736020
0.32700436
0.32665049
0.32629954
0.32595056
0.32560385
0.32525943
0.32491790
0.32457774
0.32424080
0.32390580
0.32357311
0.32324271
0.32291487
0.32258961
0.32226607
0.32194510
0.32162669
0.32131056
0.32099616
0.32068460
0.32037561
0.32006861
0.31976365
0.31946156
0.31916169
0.31886411
0.31856909
0.31827607
0.31798507
0.31769690
0.31741097
0.31712736
0.31684603
0.31656722
0.31629045
0.31601622
0.31574425
0.31547434
0.31520693
0.31494183
0.31467924
0.31441894
0.31416091
0.31390515
0.31365167
0.31340050
0.31315182
0.31290519
0.31266107
0.31241922
0.31217966
0.31194259
0.31170759
0.31147508
0.31124485
0.31101687
0.31079119
0.31056800
0.31034706
0.31012842
0.30991185
0.30969774
0.30948593
0.30927657
0.30906930
0.30886468
0.30866213
0.30846188
0.30826388
0.30806816
0.30787472
0.30768390
0.30749517
0.30730872
0.30712453
0.30694261
0.30676330
0.30658592
0.30641098
0.30623831
0.30606804
0.30589990
0.30573419
0.30557072
0.30540953
0.30525060
0.30509408
0.30493968
0.30478754
0.30463794
0.30449047
0.30434525
0.30420243
0.30406174
0.30392331
0.30378739
0.30365349
0.30352208
0.30339280
0.30326579
0.30314126
0.30301875
0.30289872
0.30278084
0.30266531
0.30255194
0.30244092
0.30233214
0.30222571
0.30212134
0.30201941
0.30191963
0.30182228
0.30172700
0.30163414
0.30154335
0.30145497
0.30136876
0.30128495
0.30120329
0.30112387
0.30104670
0.30097177
0.30089914
0.30082881
0.30076060
0.30069468
0.30063104
0.30056959
0.30051043
0.30045350
0.30039880
0.30034633
0.30029614
0.30024808
0.30020238
0.30015887
