corrn_curve_quartic
0.17002560
0.16976793
0.16951133
0.16925433
0.16899801
0.16874205
0.16848640
0.16823146
0.16797684
0.16772219
0.16746824
0.16721462
0.16696133
0.16670837
0.16645612
0.16620382
0.16595186
0.16570058
0.16544963
0.16519904
0.16494875
0.16469881
0.16444919
0.16419992
0.16395132
0.16370306
0.16345476
0.16320752
0.16295989
0.16271295
0.16246670
0.16222042
0.16197481
0.16172920
0.16148427
0.16123966
0.16099539
0.16075180
0.16050820
0.16026491
0.16002230
0.15977969
0.15953775
0.15929614
0.15905486
0.15881391
0.15857329
0.15833300
0.15809339
0.15785376
0.15761515
0.15737618
0.15713788
0.15689992
0.15666263
0.15642533
0.15618835
0.15595205
0.15571609
0.15548044
0.15524478
0.15501014
0.15477549
0.15454116
0.15430751
0.15407385
0.15384085
0.15360817
0.15337584
0.15314384
0.15291215
0.15268080
0.15245011
0.15221975
0.15198939
0.15175969
0.15153031
0.15130129
0.15107257
0.15084418
0.15061646
0.15038905
0.15016167
0.14993492
0.14970852
0.14948244
0.14925701
0.14903126
0.14880648
0.14858173
0.14835761
0.14813384
0.14791038
0.14768708
0.14746430
0.14724199
0.14702001
0.14679836
0.14657719
0.14635635
0.14613569
0.14591568
0.14569551
0.14547615
0.14525711
0.14503841
0.14482003
0.14460215
0.14438442
0.14416718
0.14395043
0.14373386
0.14351776
0.14330199
0.14308655
0.14287144
0.14265682
0.14244252
0.14222855
0.14201490
0.14180158
0.14158906
0.14137656
0.14116438
0.14095252
0.14074116
0.14053012
0.14031940
0.14010902
0.13989911
0.13968968
0.13948043
0.13927166
0.13906306
0.13885494
0.13864715
0.13843998
0.13823284
0.13802619
0.13781985
0.13761384
0.13740846
0.13720312
0.13699823
0.13679369
0.13658977
0.13638587
0.13618246
0.13597937
0.13577688
0.13557446
0.13537249
0.13517099
0.13496968
0.13476869
0.13456848
0.13436815
0.13416828
0.13396905
0.13376998
0.13357110
0.13337298
0.13317489
0.13297742
0.13278000
0.13258333
0.13238670
0.13219038
0.13199469
0.13179918
0.13160414
0.13140942
0.13121517
0.13102096
0.13082751
0.13063408
0.13044129
0.13024851
0.13005637
0.12986439
0.12967302
0.12948185
0.12929114
0.12910061
0.12891054
0.12872080
0.12853153
0.12834259
0.12815382
0.12796567
0.12777770
0.12759018
0.12740300
0.12721601
0.12702960
0.12684366
0.12665764
0.12647235
0.12628739
0.12610249
0.12591831
0.12573432
0.12555053
0.12536731
0.12518457
0.12500202
0.12481965
0.12463788
0.12445644
0.12427531
0.12409438
0.12391404
0.12373402
0.12355433
0.12337509
0.12319592
0.12301733
0.12283906
0.12266112
0.12248363
0.12230622
0.12212938
0.12195286
0.12177679
0.12160093
0.12142552
0.12125043
0.12107579
0.12090135
0.12072724
0.12055357
0.12038023
0.12020721
0.12003465
0.11986241
0.11969048
0.11951888
0.11934775
0.11917693
0.11900643
0.11883625
0.11866651
0.11849700
0.11832791
0.11815915
0.11799085
0.11782274
0.11765507
0.11748773
0.11732071
0.11715439
0.11698802
0.11682209
0.11665648
0.11649134
0.11632638
0.11616187
0.11599768
0.11583381
0.11567051
0.11550741
0.11534464
0.11518217
0.11502004
0.11485836
0.11469711
0.11453607
0.11437546
0.11421507
0.11405523
0.11389560
0.11373628
0.11357741
0.11341897
0.11326074
0.11310285
0.11294526
0.11278823
0.11263140
0.11247490
0.11231884
0.11216311
0.11200757
0.11185258
0.11169781
0.11154347
0.11138956
0.11123576
0.11108239
0.11092957
0.11077683
0.11062465
0.11047267
0.11032103
0.11016992
0.11001892
0.10986845
0.10971819
0.10956849
0.10941888
0.10926981
0.10912095
0.10897264
0.10882442
0.10867676
0.10852918
0.10838226
0.10823544
0.10808905
0.10794299
0.10779735
0.10765193
0.10750704
0.10736225
0.10721801
0.10707418
0.10693047
0.10678719
0.10664422
0.10650169
0.10635958
0.10621758
0.10607610
0.10593496
0.10579391
0.10565352
0.10551343
0.10537345
0.10523401
0.10509499
0.10495609
0.10481771
0.10467964
0.10454190
0.10440438
0.10426739
0.10413061
0.10399435
0.10385812
0.10372250
0.10358720
0.10345223
0.10331737
0.10318313
0.10304921
0.10291552
0.10278233
0.10264938
0.10251664
0.10238442
0.10225242
0.10212094
0.10198968
0.10185884
0.10172822
0.10159811
0.10146802
0.10133856
0.10120930
0.10108048
0.10095196
0.10082387
0.10069599
0.10056853
0.10044140
0.10031458
0.10018817
0.10006198
0.09993621
0.09981076
0.09968563
0.09956091
0.09943651
0.09931234
0.09918866
0.09906522
0.09894210
0.09881938
0.09869699
0.09857509
0.09845334
0.09833198
0.09821095
0.09809024
0.09796985
0.09784986
0.09773010
0.09761094
0.09749190
0.09737319
0.09725489
0.09713690
0.09701923
0.09690197
0.09678502
0.09666831
0.09655200
0.09643601
0.09632051
0.09620524
0.09609021
0.09597557
0.09586143
0.09574744
0.09563384
0.09552065
0.09540769
0.09529505
0.09518281
0.09507098
0.09495937
0.09484808
0.09473729
0.09462664
0.09451647
0.09440654
0.09429692
0.09418779
0.09407889
0.09397023
0.09386213
0.09375418
0.09364671
0.09353948
0.09343265
0.09332606
0.09321977
0.09311397
0.09300840
0.09290323
0.09279830
0.09269385
0.09258962
0.09248580
0.09238222
0.09227902
0.09217615
0.09207367
0.09197150
0.09186958
0.09176813
0.09166683
0.09156601
0.09146542
0.09136531
0.09126552
0.09116588
0.09106672
0.09096779
0.09086934
0.09077119
0.09067321
0.09057570
0.09047858
0.09038163
0.09028513
0.09018896
0.09009303
0.08999749
0.08990233
0.08980749
0.08971289
0.08961868
0.08952486
0.08943128
0.08933802
0.08924515
0.08915259
0.08906041
0.08896841
0.08887686
0.08878571
0.08869479
0.08860427
0.08851405
0.08842401
0.08833442
0.08824522
0.08815634
0.08806777
0.08797951
0.08789157
0.08780387
0.08771663
0.08762970
0.08754308
0.08745678
0.08737086
0.08728526
0.08719996
0.08711499
0.08703033
0.08694604
0.08686208
0.08677842
0.08669507
0.08661212
0.08652940
0.08644707
0.08636505
0.08628341
0.08620202
0.08612101
0.08604031
0.08595992
0.08587985
0.08580015
0.08572070
0.08564164
0.08556300
0.08548462
0.08540650
0.08532874
0.08525131
0.08517418
0.08509743
0.08502093
0.08494492
0.08486911
0.08479361
0.08471843
0.08464361
0.08456917
0.08449499
0.08442117
0.08434761
0.08427448
0.08420160
0.08412904
0.08405684
0.08398502
0.08391339
0.08384214
0.08377120
0.08370068
0.08363042
0.08356047
0.08349089
0.08342157
0.08335261
0.08328403
0.08321564
0.08314762
0.08308003
0.08301269
0.08294561
0.08287895
0.08281254
0.08274656
0.08268083
0.08261547
0.08255037
0.08248558
0.08242116
0.08235705
0.08229330
0.08222981
0.08216668
0.08210387
0.08204142
0.08197918
0.08191739
0.08185583
0.08179467
0.08173373
0.08167320
0.08161293
0.08155306
0.08149351
0.08143417
0.08137529
0.08131658
0.08125832
0.08120028
0.08114264
0.08108536
0.08102830
0.08097160
0.08091525
0.08085917
0.08080344
0.08074807
0.08069292
0.08063817
0.08058373
0.08052952
0.08047575
0.08042229
0.08036905
0.08031621
0.08026368
0.08021150
0.08015955
0.08010800
0.08005675
0.08000586
0.07995519
0.07990488
0.07985492
0.07980526
0.07975596
0.07970693
0.07965817
0.07960980
0.07956178
0.07951403
0.07946659
0.07941949
0.07937271
0.07932620
0.07928004
0.07923423
0.07918872
0.07914349
0.07909864
0.07905407
0.07900984
0.07896588
0.07892227
0.07887901
0.07883602
0.07879334
0.07875100
0.07870898
0.07866726
0.07862589
0.07858479
0.07854404
0.07850359
0.07846345
0.07842366
0.07838414
0.07834497
0.07830610
0.07826755
0.07822933
0.07819140
0.07815380
0.07811651
0.07807959
0.07804292
0.07800659
0.07797057
0.07793486
0.07789945
0.07786436
0.07782963
0.07779518
0.07776104
0.07772721
0.07769372
0.07766056
0.07762768
0.07759511
0.07756285
0.07753095
0.07749931
0.07746800
0.07743701
0.07740637
0.07737599
0.07734594
0.07731620
0.07728679
0.07725767
0.07722888
0.07720042
0.07717224
0.07714438
0.07711684
0.07708961
0.07706272
0.07703608
0.07700978
0.07698383
0.07695816
0.07693279
0.07690776
0.07688302
0.07685862
0.07683450
0.07681072
0.07678723
0.07676408
0.07674121
0.07671868
0.07669642
0.07667449
0.07665290
0.07663158
0.07661061
0.07658994
0.07656955
0.07654951
0.07652975
0.07651033
0.07649118
0.07647239
0.07645387
0.07643568
0.07641781
0.07640023
0.07638297
0.07636601
0.07634936
0.07633304
0.07631701
0.07630130
0.07628590
0.07627079
0.07625601
0.07624154
0.07622736
0.07621351
0.07619997
0.07618671
0.07617379
0.07616117
0.07614887
0.07613685
0.07612515
0.07611377
0.07610270
0.07609191
0.07608145
0.07607130
0.07606146
0.07605192
0.07604268
0.07603376
0.07602515
0.07601684
0.07600884
0.07600115
0.07599377
0.07598668
0.07597991
0.07597345
0.07596729
0.07596145
0.07595590
0.07595067
0.07594574
0.07594112
0.07593680
0.07593279
0.07592908
0.07592568
0.07592259
0.07591981
0.07591733
0.07591516
0.07591329
0.07591173
0.07591047
0.07590952
0.07590888
0.07590854
0.07590850
0.07590877
0.07590935
0.07591023
0.07591142
0.07591291
0.07591471
0.07591681
0.07591921
0.07592192
0.07592494
0.07592825
0.07593188
0.07593580
0.07594004
0.07594457
0.07594942
0.07595455
0.07596000
0.07596575
0.07597181
0.07597817
0.07598482
0.07599179
0.07599907
0.07600664
0.07601451
0.07602268
0.07603117
0.07603995
0.07604904
0.07605842
0.07606812
0.07607811
0.07608841
0.07609901
0.07610992
0.07612111
0.07613263
0.07614442
0.07615653
0.07616895
0.07618166
0.07619468
0.07620800
0.07622161
0.07623554
0.07624975
0.07626428
0.07627911
0.07629423
0.07630966
0.07632538
0.07634140
0.07635772
0.07637437
0.07639129
0.07640853
0.07642605
0.07644388
0.07646201
0.07648045
0.07649918
0.07651822
0.07653754
0.07655718
0.07657711
0.07659734
0.07661787
0.07663869
0.07665985
0.07668126
0.07670299
0.07672502
0.07674733
0.07676999
0.07679291
0.07681611
0.07683966
0.07686347
0.07688758
0.07691201
0.07693673
0.07696173
0.07698707
0.07701268
0.07703856
0.07706477
0.07709130
0.07711810
0.07714519
0.07717258
0.07720030
0.07722830
0.07725659
0.07728517
0.07731405
0.07734326
0.07737274
0.07740251
0.07743258
0.07746294
0.07749361
0.07752461
0.07755586
0.07758741
0.07761926
0.07765142
0.07768387
0.07771660
0.07774963
0.07778302
0.07781665
0.07785056
0.07788480
0.07791931
0.07795412
0.07798924
0.07802465
0.07806034
0.07809635
0.07813264
0.07816923
0.07820612
0.07824329
0.07828078
0.07831854
0.07835661
0.07839498
0.07843364
0.07847258
0.07851182
0.07855135
0.07859116
0.07863130
0.07867171
0.07871241
0.07875345
0.07879477
0.07883634
0.07887825
0.07892039
0.07896287
0.07900565
0.07904873
0.07909211
0.07913575
0.07917966
0.07922390
0.07926844
0.07931329
0.07935840
0.07940377
0.07944948
0.07949549
0.07954179
0.07958832
0.07963519
0.07968240
0.07972980
0.07977757
0.07982564
0.07987393
0.07992256
0.07997149
0.08002072
0.08007017
0.08012000
0.08017004
0.08022043
0.08027112
0.08032203
0.08037331
0.08042486
0.08047666
0.08052880
0.08058116
0.08063390
0.08068686
0.08074015
0.08079380
0.08084760
0.08090180
0.08095620
0.08101095
0.08106596
0.08112130
0.08117686
0.08123280
0.08128895
0.08134545
0.08140221
0.08145921
0.08151660
0.08157420
0.08163214
0.08169034
0.08174888
0.08180762
0.08186672
0.08192611
0.08198575
0.08204574
0.08210592
0.08216641
0.08222729
0.08228837
0.08234970
0.08241142
0.08247340
0.08253562
0.08259820
0.08266102
0.08272413
0.08278749
0.08285126
0.08291522
0.08297942
0.08304397
0.08310888
0.08317398
0.08323937
0.08330506
0.08337111
0.08343739
0.08350392
0.08357075
0.08363787
0.08370540
0.08377307
0.08384108
0.08390934
0.08397790
0.08404675
0.08411590
0.08418529
0.08425509
0.08432507
0.08439536
0.08446594
0.08453675
0.08460792
0.08467933
0.08475105
0.08482305
0.08489535
0.08496789
0.08504078
0.08511392
0.08518735
0.08526101
0.08533503
0.08540929
0.08548391
0.08555876
0.08563391
0.08570929
0.08578503
0.08586101
0.08593728
0.08601385
0.08609071
0.08616787
0.08624526
0.08632289
0.08640088
0.08647916
0.08655767
0.08663655
0.08671566
0.08679505
0.08687468
0.08695468
0.08703490
0.08711549
0.08719630
0.08727742
0.08735869
0.08744039
0.08752232
0.08760462
0.08768707
0.08776982
0.08785293
0.08793634
0.08801991
0.08810384
0.08818807
0.08827252
0.08835726
0.08844238
0.08852772
0.08861328
0.08869921
0.08878544
0.08887181
0.08895856
0.08904553
0.08913286
0.08922049
0.08930827
0.08939648
0.08948485
0.08957359
0.08966262
0.08975180
0.08984142
0.08993119
0.09002133
0.09011168
0.09020241
0.09029327
0.09038451
0.09047597
0.09056788
0.09065985
0.09075227
0.09084483
0.09093784
0.09103098
0.09112451
0.09121817
0.09131227
0.09140652
0.09150114
0.09159598
0.09169110
0.09178661
0.09188224
0.09197825
0.09207448
0.09217099
0.09226789
0.09236492
0.09246223
0.09256001
0.09265792
0.09275604
0.09285461
0.09295340
0.09305240
0.09315177
0.09325136
0.09335116
0.09345133
0.09355180
0.09365247
0.09375344
0.09385471
0.09395635
0.09405811
0.09416017
0.09426252
0.09436517
0.09446819
0.09457134
0.09467486
0.09477859
0.09488261
0.09498684
0.09509154
0.09519644
0.09530155
0.09540694
0.09551264
0.09561854
0.09572481
0.09583129
0.09593807
0.09604514
0.09615249
0.09626024
0.09636810
0.09647634
0.09658478
0.09669351
0.09680244
0.09691176
0.09702127
0.09713109
0.09724119
0.09735159
0.09746227
0.09757316
0.09768443
0.09779571
0.09790748
0.09801953
0.09813188
0.09824442
0.09835726
0.09847039
0.09858381
0.09869752
0.09881143
0.09892553
0.09904002
0.09915481
0.09926988
0.09938525
0.09950081
0.09961676
0.09973271
0.09984915
0.09996588
0.10008289
0.10020011
0.10031752
0.10043531
0.10055339
0.10067178
0.10079025
0.10090910
0.10102826
0.10114760
0.10126734
0.10138725
0.10150758
0.10162798
0.10174878
0.10186987
0.10199104
0.10211271
0.10223457
0.10235662
0.10247906
0.10260168
0.10272471
0.10284792
0.10297131
0.10309511
0.10321908
0.10334346
0.10346801
0.10359286
0.10371799
0.10384332
0.10396904
0.10409483
0.10422113
0.10434752
0.10447428
0.10460124
0.10472860
0.10485603
0.10498396
0.10511197
0.10524038
0.10536897
0.10549796
0.10562702
0.10575647
0.10588610
0.10601604
0.10614636
0.10627688
0.10640767
0.10653876
0.10666991
0.10680169
0.10693342
0.10706556
0.10719798
0.10733058
0.10746347
0.10759676
0.10773023
0.10786388
0.10799803
0.10813226
0.10826677
0.10840157
0.10853666
0.10867205
0.10880759
0.10894355
0.10907969
0.10921610
0.10935269
0.10948969
0.10962698
0.10976445
0.10990218
0.11004010
0.11017843
0.11031693
0.11045595
0.11059502
0.11073426
0.11087391
0.11101374
0.11115397
0.11129437
0.11143518
0.11157615
0.11171728
0.11185883
0.11200056
0.11214256
0.11228486
0.11242732
0.11257020
0.11271322
0.11285668
0.11300029
0.11314407
0.11328826
0.11343273
0.11357738
0.11372231
0.11386753
0.11401304
0.11415870
0.11430479
0.11445103
0.11459756
0.11474438
0.11489149
0.11503890
0.11518632
0.11533416
0.11548230
0.11563072
0.11577942
0.11592829
0.11607757
0.11622689
0.11637662
0.11652663
0.11667681
0.11682741
0.11697816
0.11712906
0.11728038
0.11743199
0.11758389
0.11773581
0.11788815
0.11804092
0.11819383
0.11834677
0.11850026
0.11865391
0.11880797
0.11896192
0.11911643
0.11927122
0.11942617
0.11958139
0.11973692
0.11989259
0.12004868
0.12020506
0.12036146
0.12051840
0.12067551
0.12083276
0.12099045
0.12114813
0.12130638
0.12146478
0.12162333
0.12178230
0.12194142
0.12210096
0.12226052
0.12242065
0.12258062
0.12274131
0.12290187
0.12306300
0.12322413
0.12338583
0.12354738
0.12370965
0.12387178
0.12403449
0.12419718
0.12436047
0.12452359
0.12468715
0.12485115
0.12501513
0.12517970
0.12534426
0.12550910
0.12567438
0.12583979
0.12600549
0.12617147
0.12633761
0.12650417
0.12667086
0.12683770
0.12700511
0.12717253
0.12734021
0.12750819
0.12767660
0.12784500
0.12801384
0.12818281
0.12835221
0.12852175
0.12869158
0.12886169
0.12903209
0.12920262
0.12937343
0.12954453
0.12971591
0.12988774
0.13005954
0.13023163
0.13040400
0.13057665
0.13074959
0.13092299
0.13109634
0.13126999
0.13144391
0.13161813
0.13179262
0.13196741
0.13214232
0.13231752
0.13249299
0.13266876
0.13284497
0.13302131
0.13319777
0.13337452
0.13355155
0.13372886
0.13390646
0.13408419
0.13426219
0.13444064
0.13461922
0.13479809
0.13497691
0.13515619
0.13533590
0.13551575
0.13569586
0.13587628
0.13605696
0.13623778
0.13641888
0.13660042
0.13678209
0.13696371
0.13714594
0.13732830
0.13751111
0.13769403
0.13787723
0.13806055
0.13824416
0.13842822
0.13861239
0.13879701
0.13898143
0.13916645
0.13935176
0.13953719
0.13972307
0.13990888
0.14009517
0.14028172
0.14046823
0.14065537
0.14084260
0.14103013
0.14121777
0.14140587
0.14159423
0.14178255
0.14197133
0.14216038
0.14234955
0.14253917
0.14272890
0.14291893
0.14310939
0.14329963
0.14349067
0.14368148
0.14387291
0.14406462
0.14425626
0.14444838
0.14464058
0.14483326
0.14502587
0.14521910
0.14541228
0.14560591
0.14579963
0.14599383
0.14618796
0.14638272
0.14657741
0.14677256
0.14696781
0.14716352
0.14735934
0.14755544
0.14775181
0.14794829
0.14814524
0.14834212
0.14853963
0.14873723
0.14893496
0.14913313
0.14933140
0.14952997
0.14972882
0.14992793
0.15012716
0.15032684
0.15052663
0.15072671
0.15092725
0.15112770
0.15132838
0.15152958
0.15173106
0.15193264
0.15213431
0.15233664
0.15253887
0.15274138
0.15294420
0.15314727
0.15335082
0.15355427
0.15375819
0.15396222
0.15416651
0.15437129
0.15457596
0.15478111
0.15498635
0.15519186
0.15539767
0.15560375
0.15581012
0.15601694
0.15622368
0.15643069
0.15663799
0.15684557
0.15705343
0.15726137
0.15746960
0.15767830
0.15788709
0.15809615
0.15830532
0.15851495
0.15872468
0.15893487
0.15914514
0.15935572
0.15956635
0.15977749
0.15998868
0.16020038
0.16041213
0.16062419
0.16083633
0.16104895
0.16126182
0.16147442
0.16168786
0.16190140
0.16211501
0.16232911
0.16254349
0.16275794
0.16297268
0.16318751
0.16340281
0.16361818
0.16383404
0.16404999
0.16426600
0.16448251
0.16469928
0.16491633
0.16513347
0.16535088
0.16556858
0.16578657
0.16600481
0.16622294
0.16644177
0.16666066
0.16687963
0.16709927
0.16731880
0.16753862
0.16775889
0.16797926
0.16819972
0.16842064
0.16864184
0.16886311
0.16908487
0.16930670
0.16952862
0.16975100
0.16997348
0.17019642
0.17041964
0.17064275
0.17086653
0.17109019
0.17131433
0.17153834
0.17176302
0.17198758
0.17221284
0.17243796
0.17266357
0.17288924
0.17311538
0.17334142
0.17356793
0.17379450
0.17402178
0.17424869
0.17447631
0.17470399
0.17493198
0.17516000
0.17538830
0.17561712
0.17584598
0.17607533
