corrn_curve_cubic
1.98954595
1.98815388
1.98676008
1.98536838
1.98397495
1.98258371
1.98119256
1.97980169
1.97841091
1.97702031
1.97563191
1.97424177
1.97285374
1.97146387
1.97007620
1.96868872
1.96730142
1.96591430
1.96452927
1.96314252
1.96175796
1.96037158
1.95898930
1.95760519
1.95622137
1.95483762
1.95345407
1.95207270
1.95068961
1.94930861
1.94792779
1.94654716
1.94516671
1.94378644
1.94240826
1.94102836
1.93965065
1.93827312
1.93689377
1.93551650
1.93413952
1.93276463
1.93138791
1.93001148
1.92863713
1.92726297
1.92588899
1.92451319
1.92314158
1.92176814
1.92039489
1.91902383
1.91765094
1.91628014
1.91490962
1.91353929
1.91216903
1.91079906
1.90942917
1.90805956
1.90669404
1.90532470
1.90395754
1.90259056
1.90122186
1.89985725
1.89849081
1.89712656
1.89576050
1.89439651
1.89303280
1.89166928
1.89030583
1.88894267
1.88757969
1.88621879
1.88485608
1.88349564
1.88213528
1.88077511
1.87941322
1.87805530
1.87669577
1.87533633
1.87397706
1.87261997
1.87126495
1.86990623
1.86854968
1.86719332
1.86583703
1.86448292
1.86312710
1.86177335
1.86041988
1.85906550
1.85771229
1.85636026
1.85500652
1.85365585
1.85230437
1.85095405
1.84960193
1.84825199
1.84690212
1.84555154
1.84420312
1.84285479
1.84150773
1.84015976
1.83881108
1.83746447
1.83611813
1.83477287
1.83342680
1.83208090
1.83073618
1.82939174
1.82804828
1.82670509
1.82536209
1.82401728
1.82267562
1.82133316
1.81999177
1.81865165
1.81731062
1.81597086
1.81463118
1.81329178
1.81195246
1.81061431
1.80927535
1.80793667
1.80659906
1.80526262
1.80392537
1.80258929
1.80125340
1.79991867
1.79858303
1.79724866
1.79591635
1.79458234
1.79324940
1.79191673
1.79058415
1.78925185
1.78791963
1.78658857
1.78525779
1.78392710
1.78259658
1.78126723
1.77993905
1.77861095
1.77728214
1.77595351
1.77462604
1.77329876
1.77197353
1.77064660
1.76932074
1.76799516
1.76666966
1.76534631
1.76402126
1.76269728
1.76137348
1.76004996
1.75872839
1.75740612
1.75608402
1.75476407
1.75344233
1.75212175
1.75080135
1.74948202
1.74816296
1.74684310
1.74552529
1.74420667
1.74288931
1.74157302
1.74025493
1.73893998
1.73762334
1.73630677
1.73499235
1.73367713
1.73236208
1.73104918
1.72973449
1.72842283
1.72710850
1.72579729
1.72448518
1.72317433
1.72186169
1.72055208
1.71924068
1.71793143
1.71662147
1.71531355
1.71400384
1.71269628
1.71138693
1.71008070
1.70877269
1.70746682
1.70615917
1.70485463
1.70354919
1.70224305
1.70093904
1.69963414
1.69833049
1.69702790
1.69572362
1.69442139
1.69312031
1.69181745
1.69051672
1.68921617
1.68791394
1.68661472
1.68531471
1.68401487
1.68271608
1.68141758
1.68012022
1.67882109
1.67752400
1.67622717
1.67493141
1.67363396
1.67233855
1.67104331
1.66974826
1.66845249
1.66715877
1.66586521
1.66457184
1.66327962
1.66198659
1.66069375
1.65940206
1.65811054
1.65682008
1.65552989
1.65423978
1.65294994
1.65166019
1.65037168
1.64908140
1.64779315
1.64650604
1.64521814
1.64393149
1.64264492
1.64135949
1.64007327
1.63878820
1.63750321
1.63621849
1.63493394
1.63365055
1.63236636
1.63108322
1.62980132
1.62851853
1.62723699
1.62595553
1.62467433
1.62339322
1.62211423
1.62083444
1.61955482
1.61827538
1.61699709
1.61571898
1.61444006
1.61316230
1.61188665
1.61061021
1.60933384
1.60805775
1.60678183
1.60550599
1.60423324
1.60295785
1.60168447
1.60041040
1.59913641
1.59786550
1.59659283
1.59532043
1.59404810
1.59277789
1.59150689
1.59023606
1.58896724
1.58769773
1.58642743
1.58516011
1.58389112
1.58262318
1.58135648
1.58008889
1.57882157
1.57755529
1.57628919
1.57502336
1.57375858
1.57249300
1.57122953
1.56996527
1.56870022
1.56743824
1.56617450
1.56491278
1.56365035
1.56238907
1.56112700
1.55986596
1.55860617
1.55734549
1.55608604
1.55482571
1.55356748
1.55230855
1.55105067
1.54979392
1.54853542
1.54727903
1.54602184
1.54476579
1.54350991
1.54225518
1.54100051
1.53974420
1.53849094
1.53723594
1.53598293
1.53473107
1.53347658
1.53222506
1.53097371
1.52972071
1.52847067
1.52721985
1.52596833
1.52471881
1.52347033
1.52221933
1.52097129
1.51972333
1.51847564
1.51722716
1.51597982
1.51473351
1.51348747
1.51223969
1.51099486
1.50974924
1.50850486
1.50726055
1.50601449
1.50477158
1.50352779
1.50228513
1.50104265
1.49980129
1.49855819
1.49731623
1.49607539
1.49483463
1.49359510
1.49235478
1.49111550
1.48987648
1.48863754
1.48739983
1.48616028
1.48492291
1.48368562
1.48244850
1.48121165
1.47997583
1.47874018
1.47750471
1.47626941
1.47503524
1.47380124
1.47256741
1.47133366
1.47010017
1.46886782
1.46763649
1.46640543
1.46517350
1.46394183
1.46271119
1.46148082
1.46025053
1.45902041
1.45779141
1.45656268
1.45533498
1.45410650
1.45287915
1.45165101
1.45042400
1.44919716
1.44797230
1.44674676
1.44552043
1.44429514
1.44307011
1.44184706
1.44062332
1.43939871
1.43817532
1.43695391
1.43573077
1.43450875
1.43328690
1.43206617
1.43084561
1.42962437
1.42840501
1.42718497
1.42596510
1.42474730
1.42352862
1.42230926
1.42109293
1.41987477
1.41865687
1.41744095
1.41622435
1.41500972
1.41379336
1.41257727
1.41136315
1.41014825
1.40893542
1.40772087
1.40650838
1.40529512
1.40408297
1.40287005
1.40165919
1.40044746
1.39923694
1.39802565
1.39681633
1.39560537
1.39439639
1.39318672
1.39197808
1.39076876
1.38956140
1.38835516
1.38714625
1.38594035
1.38473273
1.38352717
1.38232273
1.38111562
1.37991151
1.37870568
1.37750183
1.37629918
1.37509480
1.37389145
1.37268931
1.37148630
1.37028450
1.36908277
1.36788216
1.36668087
1.36548059
1.36428049
1.36307961
1.36188079
1.36068213
1.35948365
1.35828533
1.35708625
1.35588921
1.35469235
1.35349651
1.35229998
1.35110268
1.34990734
1.34871227
1.34751727
1.34632338
1.34512881
1.34393432
1.34274093
1.34154781
1.34035571
1.33916284
1.33797107
1.33677947
1.33558898
1.33439772
1.33320748
1.33201750
1.33082768
1.32963889
1.32844847
1.32726010
1.32607181
1.32488378
1.32369582
1.32250907
1.32132333
1.32013682
1.31895047
1.31776524
1.31658017
1.31539443
1.31421054
1.31302598
1.31184158
1.31065829
1.30947517
1.30829222
1.30710944
1.30592860
1.30474709
1.30356566
1.30238448
1.30120432
1.30002348
1.29884365
1.29766493
1.29648553
1.29530714
1.29412798
1.29294993
1.29177392
1.29059620
1.28941865
1.28824220
1.28706676
1.28589065
1.28471564
1.28353987
1.28236603
1.28119153
1.28001719
1.27884479
1.27767069
1.27649779
1.27532589
1.27415323
1.27298176
1.27181121
1.27063914
1.26946808
1.26829905
1.26712833
1.26595964
1.26479018
1.26362079
1.26245260
1.26128458
1.26011756
1.25894987
1.25778327
1.25661582
1.25544956
1.25428431
1.25311745
1.25195346
1.25078778
1.24962412
1.24845886
1.24729637
1.24613238
1.24496939
1.24380740
1.24264474
1.24148318
1.24032086
1.23916056
1.23799857
1.23683851
1.23567954
1.23451898
1.23335951
1.23220011
1.23104191
1.22988377
1.22872488
1.22756800
1.22641139
1.22525392
1.22409754
1.22294226
1.22178529
1.22063034
1.21947556
1.21832094
1.21716556
1.21601210
1.21485891
1.21370579
1.21255200
1.21140023
1.21024853
1.20909700
1.20794572
1.20679359
1.20564265
1.20449271
1.20334293
1.20219331
1.20104294
1.19989458
1.19874546
1.19759743
1.19645049
1.19530280
1.19415610
1.19300873
1.19186153
1.19071542
1.18956947
1.18842452
1.18727973
1.18613520
1.18499075
1.18384738
1.18270335
1.18156031
1.18041743
1.17927473
1.17813310
1.17699082
1.17584943
1.17470831
1.17356734
1.17242747
1.17128683
1.17014729
1.16900781
1.16786860
1.16673046
1.16559333
1.16445543
1.16331779
1.16218023
1.16104292
1.15990660
1.15877045
1.15763455
1.15649964
1.15536490
1.15422941
1.15309500
1.15196075
1.15082666
1.14969458
1.14856166
1.14742898
1.14629647
1.14516588
1.14403369
1.14290250
1.14177065
1.14064163
1.13951102
1.13838049
1.13725112
1.13612275
1.13499363
1.13386558
1.13273770
1.13160998
1.13048243
1.12935596
1.12822873
1.12710258
1.12597752
1.12485170
1.12372604
1.12260137
1.12147696
1.12035353
1.11922945
1.11810635
1.11698258
1.11585981
1.11473812
1.11361485
1.11249439
1.11137227
1.11025214
1.10913035
1.10801146
1.10689090
1.10577143
1.10465211
1.10353387
1.10241397
1.10129688
1.10017822
1.09906154
1.09794494
1.09682677
1.09571140
1.09459447
1.09347943
1.09236455
1.09124810
1.09013446
1.08901916
1.08790584
1.08679269
1.08567797
1.08456596
1.08345329
1.08234079
1.08122936
1.08011809
1.07900607
1.07789513
1.07678517
1.07567546
1.07456409
1.07345552
1.07234621
1.07123806
1.07012815
1.06902115
1.06791348
1.06680588
1.06569936
1.06459118
1.06348589
1.06237985
1.06127397
1.06016917
1.05906452
1.05795822
1.05685481
1.05575055
1.05464746
1.05354453
1.05244167
1.05133907
1.05023653
1.04913516
1.04803203
1.04693098
1.04583090
1.04473008
1.04363033
1.04252992
1.04143049
1.04033212
1.03923301
1.03813488
1.03703618
1.03593837
1.03484081
1.03374432
1.03264708
1.03155082
1.03045481
1.02935896
1.02826499
1.02716937
1.02607491
1.02498051
1.02388637
1.02279230
1.02169930
1.02060564
1.01951295
1.01842214
1.01732987
1.01623848
1.01514653
1.01405555
1.01296464
1.01187578
1.01078529
1.00969585
1.00860649
1.00751737
1.00642923
1.00534134
1.00425261
1.00316504
1.00207844
1.00099119
0.99990491
0.99881969
0.99773373
0.99664703
0.99556229
0.99447771
0.99339329
0.99230903
0.99122583
0.99014189
0.98905991
0.98797629
0.98689364
0.98581213
0.98472989
0.98364772
0.98256760
0.98148664
0.98040675
0.97932620
0.97824753
0.97716730
0.97608894
0.97500984
0.97393090
0.97285302
0.97177530
0.97069864
0.96962034
0.96854489
0.96746780
0.96639267
0.96531761
0.96424100
0.96316724
0.96209176
0.96101743
0.95994325
0.95887004
0.95779698
0.95672328
0.95565144
0.95457797
0.95350654
0.95243518
0.95136308
0.95029293
0.94922293
0.94815131
0.94708164
0.94601301
0.94494276
0.94387437
0.94280622
0.94173645
0.94066951
0.93960175
0.93853513
0.93746679
0.93640049
0.93533515
0.93426907
0.93320235
0.93213749
0.93107278
0.93000832
0.92894482
0.92787969
0.92681651
0.92575349
0.92469062
0.92362791
0.92256616
0.92150377
0.92044153
0.91938035
0.91831932
0.91725925
0.91619854
0.91513878
0.91407928
0.91301984
0.91196145
0.91090242
0.90984434
0.90878643
0.90772876
0.90667204
0.90561371
0.90455731
0.90350107
0.90244588
0.90138995
0.90033508
0.89928027
0.89822570
0.89717129
0.89611704
0.89506286
0.89400982
0.89295692
0.89190410
0.89085153
0.88979902
0.88874756
0.88769723
0.88664608
0.88559509
0.88454425
0.88349446
0.88244491
0.88139455
0.88034691
0.87929775
0.87824963
0.87720077
0.87615297
0.87510620
0.87405950
0.87301217
0.87196587
0.87092053
0.86987454
0.86882863
0.86778296
0.86673913
0.86569456
0.86465025
0.86360688
0.86256279
0.86151974
0.86047773
0.85943499
0.85839161
0.85735086
0.85630868
0.85526736
0.85422717
0.85318625
0.85214717
0.85110656
0.85006611
0.84902758
0.84798824
0.84695081
0.84591187
0.84487475
0.84383612
0.84279844
0.84176267
0.84072539
0.83968906
0.83865288
0.83761773
0.83658187
0.83554704
0.83451236
0.83347872
0.83244523
0.83141014
0.83037776
0.82934386
0.82831188
0.82727829
0.82624741
0.82521581
0.82418356
0.82315315
0.82212297
0.82109111
0.82006204
0.81903145
0.81800181
0.81697320
0.81594387
0.81491557
0.81388743
0.81286032
0.81183161
0.81080481
0.80977816
0.80875079
0.80772446
0.80669906
0.80567391
0.80464804
0.80362311
0.80259842
0.80157468
0.80055109
0.79952599
0.79850271
0.79747968
0.79645758
0.79543564
0.79441385
0.79339056
0.79236908
0.79134854
0.79032746
0.78930723
0.78828725
0.78726742
0.78624861
0.78522909
0.78421051
0.78319042
0.78217223
0.78115498
0.78013710
0.77912016
0.77810259
0.77708596
0.77607036
0.77505412
0.77403795
0.77302281
0.77200782
0.77099307
0.76997838
0.76896473
0.76795035
0.76693866
0.76592546
0.76491242
0.76389953
0.76288767
0.76187500
0.76086344
0.75985204
0.75884157
0.75783047
0.75682118
0.75581126
0.75480141
0.75379171
0.75278225
0.75177373
0.75076623
0.74975801
0.74874994
0.74774212
0.74673601
0.74572928
0.74472191
0.74371539
0.74271085
0.74170473
0.74069963
0.73969381
0.73869066
0.73768601
0.73668144
0.73567883
0.73467543
0.73367139
0.73267003
0.73166708
0.73066437
0.72966346
0.72866184
0.72766037
0.72666001
0.72565884
0.72465956
0.72365957
0.72265886
0.72166082
0.72066128
0.71966363
0.71866439
0.71766704
0.71666890
0.71567272
0.71467496
0.71367900
0.71268154
0.71168588
0.71068960
0.70969511
0.70869904
0.70770485
0.70671004
0.70571616
0.70472156
0.70372798
0.70273455
0.70174214
0.70074988
0.69975691
0.69876495
0.69777401
0.69678149
0.69579076
0.69479941
0.69380907
0.69281966
0.69182876
0.69083966
0.68985079
0.68886112
0.68787341
0.68688491
0.68589742
0.68490931
0.68392212
0.68293508
0.68194906
0.68096146
0.67997574
0.67899017
0.67800475
0.67701862
0.67603436
0.67505016
0.67406621
0.67308240
0.67209789
0.67111430
0.67013180
0.66914937
0.66816718
0.66718505
0.66620316
0.66522219
0.66423974
0.66325907
0.66227856
0.66129819
0.66031883
0.65933877
0.65835971
0.65738080
0.65640205
0.65542344
0.65444584
0.65346839
0.65249024
0.65151386
0.65053686
0.64956002
0.64858409
0.64760754
0.64663200
0.64565653
0.64468206
0.64370696
0.64273279
0.64175800
0.64078413
0.63981127
0.63883855
0.63786599
0.63689272
0.63592053
0.63494842
0.63397722
0.63300540
0.63203544
0.63106478
0.63009427
0.62912382
0.62815360
0.62718354
0.62621524
0.62524633
0.62427756
0.62330887
0.62234202
0.62137371
0.62040631
0.61943914
0.61847290
0.61750680
0.61654000
0.61557505
0.61460940
0.61364304
0.61267778
0.61171419
0.61074999
0.60978508
0.60882203
0.60785827
0.60689628
0.60593282
0.60496952
0.60400882
0.60304581
0.60208541
0.60112355
0.60016175
0.59920180
0.59824123
0.59728158
0.59632122
0.59536272
0.59440274
0.59344453
0.59248562
0.59152771
0.59056909
0.58961232
0.58865401
0.58769753
0.58674036
0.58578410
0.58482807
0.58387219
0.58291722
0.58196164
0.58100697
0.58005168
0.57909815
0.57814401
0.57718993
0.57623684
0.57528315
0.57433036
0.57337856
0.57242531
0.57147381
0.57052245
0.56957040
0.56862019
0.56766928
0.56671928
0.56576867
0.56481905
0.56386958
0.56291941
0.56197099
0.56102280
0.56007468
0.55912679
0.55817820
0.55723137
0.55628392
0.55533738
0.55439098
0.55344398
0.55249788
0.55155277
0.55060781
0.54966299
0.54871833
0.54777305
0.54682868
0.54588521
0.54494121
0.54399804
0.54305594
0.54211314
0.54117049
0.54022875
0.53928724
0.53834579
0.53740457
0.53646349
0.53552333
0.53458255
0.53364267
0.53270294
0.53176344
0.53082485
0.52988556
0.52894726
0.52800910
0.52707109
0.52613332
0.52519636
0.52425887
0.52332220
0.52238577
0.52144948
0.52051333
0.51957733
0.51864308
0.51770821
0.51677349
0.51583883
0.51490440
0.51397096
0.51303841
0.51210518
0.51117217
0.51023923
0.50930643
0.50837546
0.50744387
0.50651151
0.50558014
0.50464891
0.50371950
0.50278939
0.50185860
0.50092963
0.49999996
0.49907128
0.49814191
0.49721427
0.49628518
0.49535708
0.49443072
0.49350291
0.49257516
0.49164931
0.49072269
0.48979705
0.48887080
0.48794462
0.48702024
0.48609527
0.48517119
0.48424642
0.48332179
0.48239815
0.48147465
0.48055212
0.47962808
0.47870668
0.47778376
0.47686182
0.47593994
0.47501912
0.47409678
0.47317700
0.47225578
0.47133554
0.47041537
0.46949616
0.46857553
0.46765745
0.46673876
0.46581931
0.46490166
0.46398333
0.46306605
0.46214884
0.46123094
0.46031484
0.45939723
0.45848143
0.45756577
0.45664942
0.45573480
0.45482040
0.45390532
0.45299038
0.45207633
0.45116251
0.45024883
0.44933521
0.44842265
0.44751016
0.44659705
0.44568484
0.44477361
0.44386168
0.44294999
0.44203918
0.44112852
0.44021800
0.43930845
0.43839822
0.43748814
0.43657902
0.43567005
0.43476122
0.43385336
0.43294565
0.43203717
0.43112891
0.43022163
0.42931523
0.42840824
0.42750221
0.42659624
0.42569042
0.42478482
0.42387929
0.42297472
0.42206955
0.42116527
0.42026113
0.41935722
0.41845419
0.41755049
0.41664775
0.41574515
0.41484269
0.41394038
0.41303822
0.41213693
0.41123505
0.41033414
0.40943336
0.40853430
0.40763381
0.40673339
0.40583401
0.40493469
0.40403560
0.40313657
0.40223776
0.40134066
0.40044288
0.39954532
0.39864782
0.39775047
0.39685408
0.39595783
0.39506173
0.39416495
0.39326913
0.39237509
0.39147956
0.39058499
0.38968974
0.38879619
0.38790204
0.38700886
0.38611574
0.38522284
0.38432927
0.38343739
0.38254492
0.38165333
0.38076188
0.37987065
0.37897867
0.37808846
0.37719766
0.37630848
0.37541796
0.37452751
0.37363883
0.37274947
0.37186190
0.37097283
0.37008390
0.36919666
0.36830810
0.36742115
0.36653361
0.36564776
0.36476050
0.36387501
0.36298803
0.36210275
0.36121687
0.36033269
0.35944701
0.35856319
0.35767943
0.35679417
0.35591151
0.35502744
0.35414424
0.35326200
0.35237827
0.35149631
0.35061368
0.34973282
0.34885128
0.34796989
0.34708864
0.34620907
0.34532729
0.34444808
0.34356813
0.34268839
0.34180880
0.34093008
0.34005231
0.33917314
0.33829492
0.33741758
0.33654037
0.33566177
0.33478484
0.33390887
0.33303223
0.33215500
0.33127961
0.33040421
0.32952894
0.32865462
0.32777964
0.32690398
0.32603008
0.32515625
0.32428263
0.32340916
0.32253655
0.32166336
0.32079112
0.31991893
0.31904616
0.31817426
0.31730258
0.31643176
0.31556117
0.31469063
0.31382024
0.31294999
0.31207995
0.31121079
0.31034096
0.30947207
0.30860332
0.30773472
0.30686706
0.30599874
0.30513136
0.30426412
0.30339694
0.30252998
0.30166397
0.30079801
0.29993228
0.29906588
0.29820034
0.29733503
0.29647058
0.29560554
0.29474218
0.29387815
0.29301434
0.29215058
0.29128697
0.29042358
0.28956185
0.28869946
0.28783721
0.28697510
0.28611313
0.28525291
0.28439121
0.28353046
0.28266985
0.28181010
0.28094977
0.28009038
0.27923105
0.27837194
0.27751296
0.27665485
0.27579616
0.27493752
0.27408063
0.27322315
0.27236574
0.27150926
0.27065220
0.26979520
0.26893994
0.26808330
0.26722832
0.26637267
0.26551717
0.26466340
0.26380817
0.26295461
0.26210046
0.26124724
0.26039337
0.25954044
0.25868756
0.25783570
0.25698238
0.25613072
0.25527848
0.25442790
0.25357593
0.25272562
0.25187393
0.25102390
0.25017329
0.24932433
0.24847471
0.24762523
0.24677589
0.24592676
0.24507849
0.24423108
0.24338237
0.24253452
0.24168752
0.24083994
0.23999329
0.23914679
0.23830042
0.23745411
0.23660881
0.23576206
0.23491776
0.23407288
