corrn_curve_cubic
1.98338468
1.98200475
1.98062309
1.97924351
1.97786220
1.97648306
1.97510399
1.97372520
1.97234648
1.97096794
1.96959156
1.96821346
1.96683743
1.96545958
1.96408390
1.96270839
1.96133306
1.95995790
1.95858480
1.95720999
1.95583734
1.95446287
1.95309247
1.95172024
1.95034828
1.94897640
1.94760469
1.94623515
1.94486389
1.94349469
1.94212566
1.94075681
1.93938813
1.93801963
1.93665319
1.93528503
1.93391903
1.93255320
1.93118556
1.92981998
1.92845468
1.92709143
1.92572637
1.92436158
1.92299885
1.92163630
1.92027392
1.91890972
1.91754967
1.91618780
1.91482611
1.91346658
1.91210523
1.91074594
1.90938692
1.90802808
1.90666930
1.90531080
1.90395237
1.90259422
1.90124010
1.89988219
1.89852644
1.89717085
1.89581356
1.89446030
1.89310523
1.89175232
1.89039760
1.88904493
1.88769253
1.88634030
1.88498815
1.88363627
1.88228455
1.88093490
1.87958343
1.87823421
1.87688507
1.87553610
1.87418542
1.87283867
1.87149031
1.87014202
1.86879391
1.86744795
1.86610403
1.86475643
1.86341098
1.86206570
1.86072049
1.85937743
1.85803267
1.85668995
1.85534750
1.85400414
1.85266194
1.85132089
1.84997814
1.84863842
1.84729789
1.84595851
1.84461734
1.84327830
1.84193934
1.84059967
1.83926213
1.83792467
1.83658846
1.83525134
1.83391350
1.83257771
1.83124218
1.82990772
1.82857244
1.82723732
1.82590337
1.82456968
1.82323695
1.82190449
1.82057221
1.81923812
1.81790715
1.81657538
1.81524465
1.81391519
1.81258480
1.81125568
1.80992662
1.80859783
1.80726911
1.80594155
1.80461317
1.80328506
1.80195801
1.80063211
1.79930540
1.79797984
1.79665445
1.79533021
1.79400506
1.79268116
1.79135930
1.79003574
1.78871323
1.78739099
1.78606882
1.78474693
1.78342510
1.78210442
1.78078401
1.77946367
1.77814351
1.77682449
1.77550662
1.77418882
1.77287031
1.77155197
1.77023478
1.76891776
1.76760277
1.76628609
1.76497045
1.76365509
1.76233980
1.76102663
1.75971177
1.75839796
1.75708433
1.75577096
1.75445951
1.75314736
1.75183538
1.75052552
1.74921387
1.74790338
1.74659305
1.74528376
1.74397475
1.74266493
1.74135713
1.74004852
1.73874116
1.73743484
1.73612674
1.73482174
1.73351505
1.73220843
1.73090394
1.72959863
1.72829350
1.72699048
1.72568568
1.72438388
1.72307942
1.72177805
1.72047578
1.71917475
1.71787194
1.71657212
1.71527052
1.71397104
1.71267085
1.71137268
1.71007273
1.70877489
1.70747528
1.70617875
1.70488045
1.70358426
1.70228629
1.70099141
1.69969562
1.69839913
1.69710475
1.69580947
1.69451543
1.69322243
1.69192775
1.69063509
1.68934356
1.68805026
1.68675907
1.68546805
1.68417535
1.68288563
1.68159511
1.68030476
1.67901545
1.67772640
1.67643849
1.67514881
1.67386114
1.67257373
1.67128736
1.66999932
1.66871329
1.66742742
1.66614172
1.66485532
1.66357093
1.66228670
1.66100264
1.65971971
1.65843599
1.65715243
1.65587001
1.65458775
1.65330653
1.65202558
1.65074469
1.64946407
1.64818352
1.64690420
1.64562311
1.64434403
1.64306608
1.64178733
1.64050981
1.63923236
1.63795605
1.63667893
1.63540295
1.63412704
1.63285139
1.63157590
1.63030155
1.62902640
1.62775229
1.62647940
1.62520562
1.62393306
1.62266058
1.62138836
1.62011621
1.61884615
1.61757530
1.61630461
1.61503409
1.61376469
1.61249547
1.61122544
1.60995655
1.60868975
1.60742215
1.60615462
1.60488736
1.60362026
1.60235322
1.60108925
1.59982265
1.59855804
1.59729273
1.59602749
1.59476530
1.59350136
1.59223768
1.59097406
1.58971254
1.58845022
1.58718806
1.58592790
1.58466704
1.58340538
1.58214667
1.58088631
1.57962697
1.57836886
1.57710985
1.57585111
1.57459339
1.57333584
1.57207855
1.57082229
1.56956524
1.56831027
1.56705451
1.56579795
1.56454443
1.56328916
1.56203588
1.56078190
1.55952905
1.55827540
1.55702277
1.55577137
1.55451908
1.55326800
1.55201604
1.55076616
1.54951558
1.54826603
1.54701759
1.54576741
1.54451931
1.54327042
1.54202264
1.54077503
1.53952855
1.53828213
1.53703406
1.53578902
1.53454223
1.53329743
1.53205374
1.53080745
1.52956409
1.52832090
1.52707605
1.52583414
1.52459144
1.52334805
1.52210663
1.52086624
1.51962333
1.51838336
1.51714346
1.51590382
1.51466338
1.51342407
1.51218577
1.51094774
1.50970796
1.50847111
1.50723348
1.50599705
1.50476069
1.50352259
1.50228761
1.50105175
1.49981700
1.49858241
1.49734894
1.49611373
1.49487963
1.49364665
1.49241374
1.49118203
1.48994954
1.48871807
1.48748686
1.48625572
1.48502578
1.48379401
1.48256440
1.48133486
1.48010549
1.47887637
1.47764827
1.47642033
1.47519255
1.47396494
1.47273844
1.47151211
1.47028593
1.46905983
1.46783398
1.46660925
1.46538553
1.46416207
1.46293773
1.46171364
1.46049058
1.45926777
1.45804502
1.45682244
1.45560097
1.45437976
1.45315957
1.45193859
1.45071871
1.44949806
1.44827851
1.44705913
1.44584171
1.44462359
1.44340470
1.44218681
1.44096919
1.43975352
1.43853717
1.43731994
1.43610391
1.43488983
1.43367403
1.43245934
1.43124481
1.43003139
1.42881813
1.42760418
1.42639209
1.42517931
1.42396670
1.42275614
1.42154470
1.42033257
1.41912344
1.41791248
1.41670178
1.41549304
1.41428361
1.41307613
1.41186693
1.41065798
1.40945099
1.40824322
1.40703749
1.40583004
1.40462464
1.40341845
1.40221337
1.40100751
1.39980369
1.39859900
1.39739551
1.39619123
1.39498891
1.39378495
1.39258295
1.39138026
1.39017858
1.38897622
1.38777580
1.38657649
1.38537451
1.38417551
1.38297480
1.38177613
1.38057856
1.37937833
1.37818108
1.37698211
1.37578509
1.37458926
1.37339171
1.37219517
1.37099982
1.36980360
1.36860858
1.36741362
1.36621976
1.36502522
1.36383168
1.36263830
1.36144414
1.36025202
1.35906006
1.35786826
1.35667663
1.35548421
1.35429383
1.35310361
1.35191439
1.35072449
1.34953381
1.34834508
1.34715659
1.34596818
1.34478086
1.34359285
1.34240492
1.34121808
1.34003149
1.33884590
1.33765954
1.33647428
1.33528917
1.33410516
1.33292038
1.33173659
1.33055306
1.32936969
1.32818732
1.32700333
1.32582137
1.32463948
1.32345784
1.32227626
1.32109588
1.31991649
1.31873633
1.31755633
1.31637742
1.31519867
1.31401924
1.31284165
1.31166337
1.31048526
1.30930824
1.30813138
1.30695468
1.30577813
1.30460352
1.30342823
1.30225300
1.30107802
1.29990405
1.29872939
1.29755573
1.29638316
1.29520991
1.29403766
1.29286463
1.29169270
1.29052279
1.28935117
1.28817971
1.28700934
1.28583997
1.28466991
1.28350095
1.28233122
1.28116341
1.27999492
1.27882659
1.27766018
1.27649208
1.27532515
1.27415922
1.27299252
1.27182700
1.27066238
1.26949624
1.26833111
1.26716798
1.26600316
1.26484035
1.26367677
1.26251326
1.26135092
1.26018874
1.25902756
1.25786570
1.25670492
1.25554328
1.25438282
1.25322335
1.25206228
1.25090406
1.24974413
1.24858622
1.24742671
1.24626995
1.24511167
1.24395439
1.24279810
1.24164114
1.24048525
1.23932860
1.23817396
1.23701762
1.23586320
1.23470986
1.23355492
1.23240107
1.23124727
1.23009466
1.22894210
1.22778878
1.22663747
1.22548640
1.22433448
1.22318364
1.22203387
1.22088242
1.21973297
1.21858368
1.21743454
1.21628464
1.21513665
1.21398891
1.21284123
1.21169288
1.21054653
1.20940024
1.20825411
1.20710823
1.20596150
1.20481593
1.20367135
1.20252692
1.20138266
1.20023762
1.19909459
1.19795079
1.19680807
1.19566643
1.19452402
1.19338260
1.19224050
1.19109856
1.18995770
1.18881699
1.18767727
1.18653770
1.18539838
1.18425913
1.18312095
1.18198210
1.18084423
1.17970652
1.17856897
1.17743249
1.17629534
1.17515908
1.17402306
1.17288721
1.17175242
1.17061688
1.16948241
1.16834800
1.16721384
1.16608075
1.16494865
1.16381578
1.16268316
1.16155060
1.16041829
1.15928696
1.15815579
1.15702486
1.15589492
1.15476513
1.15363457
1.15250509
1.15137577
1.15024660
1.14911942
1.14799138
1.14686359
1.14573596
1.14461022
1.14348290
1.14235655
1.14122954
1.14010533
1.13897954
1.13785382
1.13672926
1.13560567
1.13448133
1.13335805
1.13223493
1.13111196
1.12998915
1.12886740
1.12774490
1.12662347
1.12550310
1.12438197
1.12326100
1.12214101
1.12102126
1.11990248
1.11878304
1.11766458
1.11654545
1.11542729
1.11431020
1.11319153
1.11207566
1.11095812
1.10984256
1.10872533
1.10761099
1.10649498
1.10538003
1.10426524
1.10315151
1.10203612
1.10092352
1.09980935
1.09869714
1.09758501
1.09647129
1.09536037
1.09424788
1.09313726
1.09202680
1.09091477
1.08980553
1.08869462
1.08758568
1.08647690
1.08536655
1.08425889
1.08315057
1.08204240
1.08093529
1.07982834
1.07872063
1.07761398
1.07650831
1.07540288
1.07429578
1.07319147
1.07208641
1.07098250
1.06987684
1.06877405
1.06767059
1.06656720
1.06546487
1.06436088
1.06325976
1.06215789
1.06105617
1.05995551
1.05885500
1.05775284
1.05665354
1.05555341
1.05445441
1.05335558
1.05225680
1.05115827
1.05005980
1.04896248
1.04786341
1.04676639
1.04567034
1.04457354
1.04347779
1.04238139
1.04128594
1.04019156
1.03909642
1.03800225
1.03690751
1.03581365
1.03472002
1.03362745
1.03253414
1.03144178
1.03034967
1.02925771
1.02816762
1.02707587
1.02598527
1.02489473
1.02380444
1.02271420
1.02162502
1.02053518
1.01944630
1.01835929
1.01727080
1.01618319
1.01509501
1.01400779
1.01292064
1.01183552
1.01074876
1.00966305
1.00857740
1.00749200
1.00640755
1.00532335
1.00423830
1.00315440
1.00207146
1.00098786
0.99990523
0.99882364
0.99774130
0.99665822
0.99557709
0.99449611
0.99341527
0.99233459
0.99125496
0.99017459
0.98909615
0.98801608
0.98693696
0.98585899
0.98478026
0.98370160
0.98262497
0.98154751
0.98047109
0.97939402
0.97831880
0.97724203
0.97616711
0.97509145
0.97401594
0.97294148
0.97186716
0.97079389
0.96971899
0.96864691
0.96757320
0.96650143
0.96542972
0.96435647
0.96328604
0.96221389
0.96114287
0.96007200
0.95900209
0.95793233
0.95686191
0.95579334
0.95472314
0.95365496
0.95258684
0.95151798
0.95045106
0.94938429
0.94831588
0.94724940
0.94618397
0.94511691
0.94405168
0.94298670
0.94192009
0.94085630
0.93979168
0.93872819
0.93766297
0.93659978
0.93553755
0.93447457
0.93341093
0.93234914
0.93128750
0.93022610
0.92916565
0.92810357
0.92704342
0.92598342
0.92492357
0.92386386
0.92280511
0.92174571
0.92068645
0.91962824
0.91857017
0.91751306
0.91645529
0.91539847
0.91434189
0.91328537
0.91222989
0.91117376
0.91011857
0.90906354
0.90800874
0.90695490
0.90589942
0.90484587
0.90379247
0.90274010
0.90168700
0.90063493
0.89958293
0.89853116
0.89747954
0.89642806
0.89537665
0.89432636
0.89327622
0.89222615
0.89117630
0.89012652
0.88907778
0.88803015
0.88698170
0.88593340
0.88488525
0.88383813
0.88279124
0.88174354
0.88069854
0.87965202
0.87860652
0.87756029
0.87651510
0.87547093
0.87442683
0.87338208
0.87233836
0.87129558
0.87025216
0.86920880
0.86816567
0.86712437
0.86608233
0.86504053
0.86399967
0.86295808
0.86191752
0.86087799
0.85983772
0.85879681
0.85775852
0.85671878
0.85567990
0.85464214
0.85360364
0.85256697
0.85152876
0.85049071
0.84945457
0.84841760
0.84738254
0.84634596
0.84531120
0.84427491
0.84323956
0.84220612
0.84117116
0.84013713
0.83910325
0.83807040
0.83703682
0.83600426
0.83497185
0.83394047
0.83290923
0.83187639
0.83084623
0.82981456
0.82878479
0.82775341
0.82672473
0.82569531
0.82466525
0.82363700
0.82260899
0.82157929
0.82055236
0.81952391
0.81849640
0.81746991
0.81644269
0.81541650
0.81439045
0.81336543
0.81233880
0.81131406
0.81028948
0.80926417
0.80823987
0.80721652
0.80619339
0.80516954
0.80414662
0.80312394
0.80210219
0.80108058
0.80005746
0.79903615
0.79801507
0.79699493
0.79597493
0.79495508
0.79393371
0.79291415
0.79189552
0.79087634
0.78985801
0.78883990
0.78782195
0.78680501
0.78578735
0.78477061
0.78375237
0.78273601
0.78172059
0.78070453
0.77968940
0.77867363
0.77765879
0.77664496
0.77563050
0.77461610
0.77360271
0.77258947
0.77157646
0.77056352
0.76955158
0.76853892
0.76752894
0.76651744
0.76550609
0.76449488
0.76348469
0.76247369
0.76146379
0.76045404
0.75944521
0.75843575
0.75742808
0.75641978
0.75541153
0.75440343
0.75339556
0.75238862
0.75138270
0.75037604
0.74936954
0.74836326
0.74735870
0.74635349
0.74534765
0.74434265
0.74333962
0.74233500
0.74133139
0.74032705
0.73932538
0.73832220
0.73731908
0.73631793
0.73531596
0.73431336
0.73331342
0.73231189
0.73131060
0.73031109
0.72931086
0.72831077
0.72731178
0.72631199
0.72531407
0.72431542
0.72331606
0.72231935
0.72132114
0.72032481
0.71932689
0.71833084
0.71733398
0.71633909
0.71534261
0.71434792
0.71335173
0.71235732
0.71136228
0.71036903
0.70937419
0.70838122
0.70738762
0.70639494
0.70540154
0.70440915
0.70341690
0.70242566
0.70143456
0.70044275
0.69945194
0.69846213
0.69747074
0.69648114
0.69549090
0.69450167
0.69351336
0.69252355
0.69153553
0.69054773
0.68955913
0.68857248
0.68758503
0.68659858
0.68561150
0.68462534
0.68363932
0.68265430
0.68166771
0.68068298
0.67969839
0.67871395
0.67772879
0.67674549
0.67576225
0.67477923
0.67379637
0.67281278
0.67183011
0.67084853
0.66986700
0.66888570
0.66790446
0.66692345
0.66594336
0.66496177
0.66398196
0.66300229
0.66202277
0.66104424
0.66006500
0.65908676
0.65810866
0.65713070
0.65615289
0.65517607
0.65419940
0.65322202
0.65224640
0.65127015
0.65029405
0.64931886
0.64834304
0.64736822
0.64639346
0.64541969
0.64444530
0.64347181
0.64249770
0.64152451
0.64055230
0.63958024
0.63860833
0.63763570
0.63666415
0.63569266
0.63472208
0.63375087
0.63278151
0.63181144
0.63084151
0.62987164
0.62890199
0.62793249
0.62696475
0.62599638
0.62502815
0.62405998
0.62309366
0.62212586
0.62115897
0.62019230
0.61922654
0.61826093
0.61729460
0.61633012
0.61536493
0.61439903
0.61343420
0.61247105
0.61150727
0.61054279
0.60958015
0.60861679
0.60765520
0.60669213
0.60572920
0.60476888
0.60380623
0.60284619
0.60188468
0.60092322
0.59996360
0.59900336
0.59804402
0.59708398
0.59612577
0.59516609
0.59420817
0.59324953
0.59229189
0.59133354
0.59037702
0.58941895
0.58846272
0.58750578
0.58654974
0.58559393
0.58463826
0.58368349
0.58272810
0.58177361
0.58081851
0.57986515
0.57891116
0.57795724
0.57700430
0.57605074
0.57509808
0.57414641
0.57319327
0.57224187
0.57129062
0.57033866
0.56938854
0.56843770
0.56748777
0.56653722
0.56558765
0.56463823
0.56368809
0.56273971
0.56179154
0.56084344
0.55989555
0.55894696
0.55800012
0.55705266
0.55610609
0.55515967
0.55421262
0.55326647
0.55232131
0.55137629
0.55043140
0.54948666
0.54854129
0.54759683
0.54665326
0.54570916
0.54476587
0.54382364
0.54288072
0.54193793
0.54099604
0.54005437
0.53911276
0.53817137
0.53723012
0.53628977
0.53534880
0.53440872
0.53346879
0.53252907
0.53159025
0.53065074
0.52971220
0.52877380
0.52783553
0.52689749
0.52596027
0.52502250
0.52408555
0.52314883
0.52221224
0.52127579
0.52033947
0.51940490
0.51846970
0.51753464
0.51659964
0.51566486
0.51473106
0.51379815
0.51286454
0.51193115
0.51099782
0.51006462
0.50913324
0.50820125
0.50726847
0.50633666
0.50540500
0.50447515
0.50354459
0.50261334
0.50168391
0.50075377
0.49982461
0.49889474
0.49796661
0.49703703
0.49610842
0.49518153
0.49425320
0.49332492
0.49239853
0.49147136
0.49054516
0.48961835
0.48869160
0.48776665
0.48684109
0.48591642
0.48499105
0.48406582
0.48314156
0.48221743
0.48129428
0.48036960
0.47944756
0.47852399
0.47760139
0.47667884
0.47575735
0.47483433
0.47391386
0.47299194
0.47207100
0.47115011
0.47023019
0.46930882
0.46839001
0.46747059
0.46655038
0.46563198
0.46471288
0.46379484
0.46287685
0.46195816
0.46104127
0.46012286
0.45920625
0.45828978
0.45737261
0.45645715
0.45554192
0.45462599
0.45371020
0.45279529
0.45188060
0.45096605
0.45005155
0.44913811
0.44822471
0.44731071
0.44639759
0.44548543
0.44457258
0.44365995
0.44274821
0.44183660
0.44092512
0.44001462
0.43910342
0.43819235
0.43728225
0.43637229
0.43546246
0.43455360
0.43364487
0.43273537
0.43182609
0.43091777
0.43001033
0.42910228
0.42819520
0.42728817
0.42638127
0.42547460
0.42456798
0.42366231
0.42275605
0.42185066
0.42094541
0.42004037
0.41913621
0.41823137
0.41732749
0.41642374
0.41552012
0.41461665
0.41371330
0.41281084
0.41190777
0.41100566
0.41010369
0.40920341
0.40830171
0.40740006
0.40649945
0.40559889
0.40469856
0.40379827
0.40289820
0.40199984
0.40110078
0.40020194
0.39930316
0.39840451
0.39750682
0.39660926
0.39571184
0.39481373
0.39391658
0.39302120
0.39212432
0.39122840
0.39033179
0.38943687
0.38854135
0.38764679
0.38675227
0.38585798
0.38496300
0.38406971
0.38317582
0.38228281
0.38138993
0.38049726
0.37960383
0.37871217
0.37781991
0.37692926
0.37603726
0.37514533
0.37425516
0.37336431
0.37247523
0.37158465
0.37069420
0.36980544
0.36891535
0.36802686
0.36713777
0.36625037
0.36536154
0.36447449
0.36358594
0.36269907
0.36181160
0.36092582
0.36003854
0.35915311
0.35826773
0.35738086
0.35649656
0.35561085
0.35472601
0.35384212
0.35295673
0.35207310
0.35118880
0.35030625
0.34942303
0.34853994
0.34765699
0.34677571
0.34589221
0.34501129
0.34412960
0.34324813
0.34236679
0.34148632
0.34060680
0.33972586
0.33884587
0.33796675
0.33708776
0.33620736
0.33532863
0.33445086
0.33357240
0.33269335
0.33181613
0.33093889
0.33006178
0.32918562
0.32830877
0.32743125
0.32655549
0.32567977
0.32480427
0.32392891
0.32305441
0.32217931
0.32130515
0.32043105
0.31955635
0.31868252
0.31780889
0.31693613
0.31606359
0.31519109
0.31431873
0.31344650
0.31257449
0.31170334
0.31083151
0.30996062
0.30908987
0.30821924
0.30734956
0.30647921
0.30560979
0.30474051
0.30387128
0.30300226
0.30213419
0.30126616
0.30039835
0.29952987
0.29866224
0.29779482
0.29692827
0.29606112
0.29519564
0.29432948
0.29346354
0.29259764
0.29173188
0.29086633
0.29000245
0.28913790
0.28827347
0.28740918
0.28654502
0.28568260
0.28481870
0.28395574
0.28309292
0.28223095
0.28136839
0.28050676
0.27964519
0.27878382
0.27792259
0.27706222
0.27620125
0.27534034
0.27448117
0.27362140
0.27276168
0.27190291
0.27104353
0.27018421
0.26932663
0.26846766
0.26761034
0.26675235
0.26589449
0.26503837
0.26418077
0.26332484
0.26246831
0.26161271
0.26075644
0.25990111
0.25904583
0.25819156
0.25733582
0.25648173
0.25562706
0.25477403
0.25391962
0.25306686
0.25221271
0.25136021
0.25050712
0.24965569
0.24880358
0.24795160
0.24709976
0.24624813
0.24539735
0.24454742
0.24369618
0.24284579
0.24199625
0.24114612
0.24029692
0.23944786
0.23859892
0.23775004
0.23690216
0.23605282
0.23520592
0.23435844
