corrn_curve_quartic
1.95837196
1.95712905
1.95588423
1.95464092
1.95339569
1.95215207
1.95090816
1.94966415
1.94841984
1.94717533
1.94593243
1.94468762
1.94344433
1.94219903
1.94095535
1.93971146
1.93846738
1.93722310
1.93598035
1.93473568
1.93349263
1.93224757
1.93100584
1.92976212
1.92851828
1.92727417
1.92602986
1.92478717
1.92354257
1.92229950
1.92105623
1.91981277
1.91856912
1.91732528
1.91608297
1.91483875
1.91359616
1.91235337
1.91110858
1.90986533
1.90862198
1.90738016
1.90613634
1.90489242
1.90365004
1.90240748
1.90116473
1.89991998
1.89867867
1.89743536
1.89619186
1.89495000
1.89370614
1.89246382
1.89122141
1.88997881
1.88873594
1.88749298
1.88624974
1.88500642
1.88376645
1.88252268
1.88128054
1.88003821
1.87879399
1.87755312
1.87631026
1.87506904
1.87382582
1.87258416
1.87134240
1.87010047
1.86885827
1.86761599
1.86637353
1.86513262
1.86388971
1.86264855
1.86140711
1.86016551
1.85892200
1.85768177
1.85643973
1.85519743
1.85395496
1.85271413
1.85147487
1.85023188
1.84899054
1.84774904
1.84650727
1.84526715
1.84402513
1.84278468
1.84154414
1.84030244
1.83906148
1.83782127
1.83657915
1.83533951
1.83409880
1.83285883
1.83161687
1.83037657
1.82913601
1.82789447
1.82665459
1.82541445
1.82417516
1.82293470
1.82169325
1.82045338
1.81921343
1.81797415
1.81673379
1.81549327
1.81425351
1.81301368
1.81177442
1.81053509
1.80929560
1.80805412
1.80681524
1.80557527
1.80433598
1.80309753
1.80185793
1.80061917
1.79938016
1.79814110
1.79690178
1.79566323
1.79442361
1.79318392
1.79194490
1.79070665
1.78946733
1.78822878
1.78699007
1.78575213
1.78451303
1.78327479
1.78203814
1.78079960
1.77956173
1.77832381
1.77708564
1.77584742
1.77460896
1.77337127
1.77213353
1.77089555
1.76965742
1.76842006
1.76718348
1.76594666
1.76470887
1.76347094
1.76223378
1.76099648
1.75976078
1.75852319
1.75728629
1.75604934
1.75481215
1.75357667
1.75233929
1.75110261
1.74986578
1.74862891
1.74739355
1.74615723
1.74492077
1.74368601
1.74244928
1.74121333
1.73997724
1.73874185
1.73750641
1.73626992
1.73503504
1.73379911
1.73256406
1.73132970
1.73009337
1.72885967
1.72762409
1.72638828
1.72515419
1.72391904
1.72268376
1.72145020
1.72021467
1.71898168
1.71774588
1.71651273
1.71527843
1.71404502
1.71280964
1.71157681
1.71034201
1.70910892
1.70787488
1.70664248
1.70540810
1.70417544
1.70294081
1.70170883
1.70047488
1.69924266
1.69800847
1.69677692
1.69554425
1.69431061
1.69307871
1.69184567
1.69061353
1.68938210
1.68814880
1.68691714
1.68568628
1.68445346
1.68322237
1.68199117
1.68075809
1.67952758
1.67829603
1.67706436
1.67583342
1.67460246
1.67337230
1.67214019
1.67090972
1.66967923
1.66844947
1.66721783
1.66598785
1.66475775
1.66352755
1.66229640
1.66106690
1.65983730
1.65860759
1.65737870
1.65614878
1.65491874
1.65368954
1.65246022
1.65123164
1.65000304
1.64877425
1.64754545
1.64631645
1.64508837
1.64385833
1.64262995
1.64140241
1.64017383
1.63894617
1.63771832
1.63649130
1.63526325
1.63403603
1.63280862
1.63158121
1.63035370
1.62912702
1.62789932
1.62667235
1.62544632
1.62421917
1.62299294
1.62176653
1.62054012
1.61931352
1.61808869
1.61686284
1.61563689
1.61441086
1.61318566
1.61196038
1.61073407
1.60950861
1.60828492
1.60706021
1.60583531
1.60461043
1.60338546
1.60216030
1.60093786
1.59971263
1.59848908
1.59726461
1.59603996
1.59481803
1.59359415
1.59237028
1.59114623
1.58992396
1.58870069
1.58747733
1.58625566
1.58503307
1.58380947
1.58258850
1.58136568
1.58014361
1.57892250
1.57770028
1.57647808
1.57525664
1.57403513
1.57281364
1.57159291
1.57037117
1.56915123
1.56793028
1.56670832
1.56548909
1.56426793
1.56304846
1.56182809
1.56060857
1.55938806
1.55816831
1.55694953
1.55572965
1.55451072
1.55329071
1.55207249
1.55085337
1.54963502
1.54841754
1.54719812
1.54598051
1.54476191
1.54354417
1.54232637
1.54110944
1.53989236
1.53867344
1.53745726
1.53623915
1.53502276
1.53380724
1.53258896
1.53137332
1.53015763
1.52894011
1.52772523
1.52650937
1.52529261
1.52407757
1.52286332
1.52164639
1.52043212
1.51921771
1.51800333
1.51678797
1.51557349
1.51435980
1.51314615
1.51193058
1.51071767
1.50950378
1.50829087
1.50707782
1.50586284
1.50465072
1.50343753
1.50222522
1.50101287
1.49980140
1.49858802
1.49737553
1.49616394
1.49495220
1.49374145
1.49252973
1.49131880
1.49010793
1.48889692
1.48768690
1.48647487
1.48526477
1.48405454
1.48284427
1.48163406
1.48042465
1.47921520
1.47800571
1.47679619
1.47558758
1.47437892
1.47317023
1.47196142
1.47075266
1.46954481
1.46833777
1.46713079
1.46592275
1.46471477
1.46350760
1.46230050
1.46109327
1.45988602
1.45867967
1.45747339
1.45626793
1.45506150
1.45385598
1.45264950
1.45144393
1.45023834
1.44903450
1.44782980
1.44662413
1.44541929
1.44421452
1.44301150
1.44180762
1.44060269
1.43939878
1.43819662
1.43699257
1.43578943
1.43458628
1.43338405
1.43218180
1.43097869
1.42977725
1.42857496
1.42737265
1.42617220
1.42497070
1.42376835
1.42256879
1.42136726
1.42016580
1.41896612
1.41776558
1.41656682
1.41536617
1.41416560
1.41296680
1.41176706
1.41056919
1.40936944
1.40817155
1.40697272
1.40577482
1.40457598
1.40337901
1.40218101
1.40098403
1.39978611
1.39858997
1.39739205
1.39619591
1.39499892
1.39380278
1.39260579
1.39141059
1.39021632
1.38901924
1.38782498
1.38662885
1.38543459
1.38424128
1.38304516
1.38185185
1.38065668
1.37946329
1.37827094
1.37707673
1.37588336
1.37469104
1.37349769
1.37230538
1.37111299
1.36992155
1.36872927
1.36753785
1.36634644
1.36515411
1.36396366
1.36277323
1.36158281
1.36039240
1.35920108
1.35801164
1.35682222
1.35563366
1.35444427
1.35325397
1.35206546
1.35087707
1.34968860
1.34850109
1.34731276
1.34612435
1.34493691
1.34374957
1.34256311
1.34137573
1.34018931
1.33900292
1.33781748
1.33663114
1.33544567
1.33426031
1.33307498
1.33189053
1.33070432
1.32952001
1.32833564
1.32715139
1.32596708
1.32478383
1.32360146
1.32241818
1.32123493
1.32005265
1.31887041
1.31768736
1.31650602
1.31532388
1.31414178
1.31296064
1.31177955
1.31059849
1.30941747
1.30823827
1.30705826
1.30587820
1.30469828
1.30351923
1.30233939
1.30116043
1.29998244
1.29880366
1.29762577
1.29644698
1.29526917
1.29409328
1.29291556
1.29173789
1.29056120
1.28938540
1.28820881
1.28703320
1.28585670
1.28468203
1.28350657
1.28233116
1.28115758
1.27998218
1.27880785
1.27763443
1.27646012
1.27528689
1.27411447
1.27294042
1.27176726
1.27059604
1.26942299
1.26825188
1.26707989
1.26590786
1.26473692
1.26356604
1.26239606
1.26122530
1.26005553
1.25888480
1.25771516
1.25654642
1.25537597
1.25420829
1.25303881
1.25187127
1.25070201
1.24953543
1.24836724
1.24719996
1.24603359
1.24486644
1.24370030
1.24253329
1.24136822
1.24020135
1.23903633
1.23787231
1.23670659
1.23554187
1.23437714
1.23321351
1.23204986
1.23088535
1.22972278
1.22856038
1.22739703
1.22623469
1.22507336
1.22391024
1.22274907
1.22158798
1.22042697
1.21926510
1.21810509
1.21694526
1.21578541
1.21462480
1.21346615
1.21230748
1.21114890
1.20999050
1.20883116
1.20767292
1.20651562
1.20535840
1.20420127
1.20304329
1.20188727
1.20073041
1.19957456
1.19841974
1.19726408
1.19610935
1.19495387
1.19379849
1.19264413
1.19148986
1.19033653
1.18918329
1.18803024
1.18687720
1.18572518
1.18457242
1.18342059
1.18226887
1.18111724
1.17996664
1.17881531
1.17766482
1.17651453
1.17536433
1.17421517
1.17306519
1.17191623
1.17076729
1.16961854
1.16847083
1.16732406
1.16617647
1.16502908
1.16388170
1.16273453
1.16158830
1.16044217
1.15929626
1.15815128
1.15700642
1.15586074
1.15471610
1.15357157
1.15242716
1.15128472
1.15014137
1.14899823
1.14785520
1.14671405
1.14557126
1.14442942
1.14328686
1.14214711
1.14100571
1.13986435
1.13872412
1.13758485
1.13644477
1.13530574
1.13416683
1.13302804
1.13188938
1.13075177
1.12961336
1.12847600
1.12733969
1.12620258
1.12506560
1.12392958
1.12279378
1.12165894
1.12052339
1.11938881
1.11825353
1.11711921
1.11598594
1.11485106
1.11371898
1.11258519
1.11145338
1.11031986
1.10918925
1.10805692
1.10692565
1.10579452
1.10466445
1.10353267
1.10240371
1.10127313
1.10014454
1.09901600
1.09788584
1.09675850
1.09562955
1.09450249
1.09337558
1.09224706
1.09112136
1.08999395
1.08886854
1.08774327
1.08661640
1.08549225
1.08436743
1.08324275
1.08211914
1.08099568
1.07987145
1.07874829
1.07762611
1.07650417
1.07538055
1.07425975
1.07313818
1.07201777
1.07089559
1.06977633
1.06865639
1.06753651
1.06641771
1.06529723
1.06417967
1.06306135
1.06194318
1.06082609
1.05970917
1.05859056
1.05747488
1.05635834
1.05524298
1.05412778
1.05301265
1.05189778
1.05078298
1.04966936
1.04855398
1.04744069
1.04632839
1.04521534
1.04410338
1.04299076
1.04187914
1.04076860
1.03965732
1.03854703
1.03743618
1.03632624
1.03521656
1.03410797
1.03299864
1.03189031
1.03078224
1.02967435
1.02856837
1.02746075
1.02635430
1.02524794
1.02414186
1.02303586
1.02193095
1.02082541
1.01972086
1.01861823
1.01751415
1.01641097
1.01530725
1.01420453
1.01310191
1.01200139
1.01089923
1.00979816
1.00869720
1.00759651
1.00649683
1.00539743
1.00429722
1.00319819
1.00210018
1.00100154
0.99990392
0.99880739
0.99771015
0.99661219
0.99551624
0.99442049
0.99332493
0.99222957
0.99113532
0.99004035
0.98894740
0.98785282
0.98675927
0.98566691
0.98457384
0.98348089
0.98239004
0.98129839
0.98020786
0.97911671
0.97802748
0.97693674
0.97584792
0.97475841
0.97366909
0.97258090
0.97149290
0.97040602
0.96931754
0.96823198
0.96714482
0.96605968
0.96497467
0.96388814
0.96280453
0.96171924
0.96063516
0.95955129
0.95846845
0.95738582
0.95630259
0.95522130
0.95413842
0.95305764
0.95197700
0.95089567
0.94981636
0.94873728
0.94765660
0.94657796
0.94550043
0.94442132
0.94334415
0.94226729
0.94118885
0.94011334
0.93903706
0.93796200
0.93688527
0.93581066
0.93473708
0.93366283
0.93258800
0.93151511
0.93044244
0.92937010
0.92829879
0.92722592
0.92615507
0.92508446
0.92401408
0.92294393
0.92187482
0.92080514
0.91973570
0.91866738
0.91759931
0.91653227
0.91546467
0.91439811
0.91333188
0.91226580
0.91120085
0.91013534
0.90907087
0.90800665
0.90694276
0.90587991
0.90481552
0.90375316
0.90269104
0.90163006
0.90056844
0.89950795
0.89844762
0.89738763
0.89632788
0.89526838
0.89420904
0.89315094
0.89209308
0.89103538
0.88997803
0.88892083
0.88786478
0.88680997
0.88575442
0.88469913
0.88364410
0.88259021
0.88153667
0.88048240
0.87943097
0.87837811
0.87732639
0.87627404
0.87522285
0.87417280
0.87312292
0.87207250
0.87102324
0.86997503
0.86892629
0.86787772
0.86682951
0.86578325
0.86473636
0.86368983
0.86264436
0.86159827
0.86055334
0.85950956
0.85846516
0.85742023
0.85637806
0.85533456
0.85429204
0.85325076
0.85220887
0.85116894
0.85012759
0.84908653
0.84804750
0.84700777
0.84597009
0.84493101
0.84389388
0.84285535
0.84181789
0.84078247
0.83974566
0.83870993
0.83767447
0.83664017
0.83560527
0.83457154
0.83353809
0.83250580
0.83147380
0.83044032
0.82940967
0.82837765
0.82734766
0.82631621
0.82528758
0.82425837
0.82322866
0.82220090
0.82117352
0.82014459
0.81911858
0.81809119
0.81706489
0.81603975
0.81501404
0.81398949
0.81296523
0.81194215
0.81091761
0.80989512
0.80887292
0.80785014
0.80682854
0.80580802
0.80478789
0.80376719
0.80274757
0.80172834
0.80071019
0.79969234
0.79867315
0.79765591
0.79663906
0.79562330
0.79460785
0.79359269
0.79257620
0.79156166
0.79054821
0.78953438
0.78852154
0.78750911
0.78649698
0.78548603
0.78447452
0.78346411
0.78245236
0.78144266
0.78043405
0.77942497
0.77841699
0.77740854
0.77640119
0.77539501
0.77438838
0.77338198
0.77237676
0.77137185
0.77036736
0.76936309
0.76836001
0.76735639
0.76635559
0.76535347
0.76435167
0.76335020
0.76234991
0.76134900
0.76034936
0.75935005
0.75835184
0.75735318
0.75635648
0.75535933
0.75436243
0.75336586
0.75236970
0.75137464
0.75038077
0.74938638
0.74839232
0.74739867
0.74640690
0.74541469
0.74442205
0.74343043
0.74244094
0.74145007
0.74046039
0.73947020
0.73848283
0.73749416
0.73650575
0.73551948
0.73453260
0.73354530
0.73256081
0.73157496
0.73058954
0.72960607
0.72862210
0.72763848
0.72665613
0.72567319
0.72469230
0.72371091
0.72272901
0.72174993
0.72076958
0.71979127
0.71881162
0.71783401
0.71685582
0.71587977
0.71490237
0.71392693
0.71295023
0.71197550
0.71100036
0.71002718
0.70905266
0.70808019
0.70710732
0.70613556
0.70516332
0.70419228
0.70322160
0.70225212
0.70128300
0.70031339
0.69934500
0.69837780
0.69740928
0.69644273
0.69547578
0.69451003
0.69354541
0.69257955
0.69161566
0.69065221
0.68968821
0.68872634
0.68776392
0.68680270
0.68584109
0.68488061
0.68392050
0.68296160
0.68200139
0.68104323
0.68008545
0.67912803
0.67817016
0.67721432
0.67625878
0.67530370
0.67434900
0.67339383
0.67243980
0.67148706
0.67053461
0.66958262
0.66863094
0.66767971
0.66672962
0.66577832
0.66482899
0.66388004
0.66293147
0.66198412
0.66103632
0.66008973
0.65914353
0.65819771
0.65725229
0.65630807
0.65536425
0.65441998
0.65347768
0.65253502
0.65159274
0.65065161
0.64971012
0.64876985
0.64782989
0.64689114
0.64595205
0.64501409
0.64407579
0.64313862
0.64220267
0.64126712
0.64033196
0.63939638
0.63846210
0.63752814
0.63659531
0.63566215
0.63473103
0.63379948
0.63286834
0.63193752
0.63100719
0.63007725
0.62914928
0.62822097
0.62729307
0.62636549
0.62543995
0.62451327
0.62358773
0.62266268
0.62173877
0.62081526
0.61989136
0.61896949
0.61804722
0.61712454
0.61620318
0.61528369
0.61436388
0.61344367
0.61252550
0.61160693
0.61069032
0.60977258
0.60885526
0.60794071
0.60702422
0.60611050
0.60519567
0.60428117
0.60336870
0.60245593
0.60154431
0.60063230
0.59972233
0.59881125
0.59790212
0.59699261
0.59608433
0.59517568
0.59426905
0.59336124
0.59245547
0.59154932
0.59064433
0.58973984
0.58883578
0.58793287
0.58702967
0.58612762
0.58522528
0.58432489
0.58342422
0.58252390
0.58162481
0.58072544
0.57982722
0.57893024
0.57803217
0.57713606
0.57624038
0.57534435
0.57445034
0.57355598
0.57266277
0.57176929
0.57087704
0.56998523
0.56909308
0.56820287
0.56731318
0.56642385
0.56553505
0.56464591
0.56375871
0.56287124
0.56198493
0.56109907
0.56021295
0.55932798
0.55844426
0.55756098
0.55667815
0.55579576
0.55491313
0.55403165
0.55315133
0.55227084
0.55139142
0.55051333
0.54963490
0.54875693
0.54788012
0.54700384
0.54612794
0.54525258
0.54437767
0.54350393
0.54262994
0.54175712
0.54088475
0.54001292
0.53914226
0.53827127
0.53740153
0.53653225
0.53566344
0.53479517
0.53392798
0.53306063
0.53219438
0.53132866
0.53046342
0.52959864
0.52873433
0.52787196
0.52700936
0.52614723
0.52528549
0.52442430
0.52356436
0.52270558
0.52184650
0.52098797
0.52012984
0.51927219
0.51841654
0.51756068
0.51670445
0.51584947
0.51499496
0.51414246
0.51328968
0.51243661
0.51158555
0.51073420
0.50988410
0.50903371
0.50818526
0.50733584
0.50648767
0.50564142
0.50479422
0.50394742
0.50310270
0.50225764
0.50141382
0.50056980
0.49972620
0.49888460
0.49804280
0.49720218
0.49636129
0.49552089
0.49468173
0.49384307
0.49300566
0.49216722
0.49133155
0.49049486
0.48965941
0.48882439
0.48799069
0.48715598
0.48632395
0.48549098
0.48465927
0.48382798
0.48299793
0.48216696
0.48133867
0.48051020
0.47968141
0.47885461
0.47802757
0.47720186
0.47637657
0.47555104
0.47472751
0.47390299
0.47308046
0.47225845
0.47143619
0.47061585
0.46979610
0.46897611
0.46815663
0.46733832
0.46652060
0.46570339
0.46488662
0.46407117
0.46325616
0.46244100
0.46162702
0.46081428
0.46000133
0.45918896
0.45837777
0.45756710
0.45675694
0.45594804
0.45513891
0.45433031
0.45352296
0.45271613
0.45190982
0.45110476
0.45030022
0.44949540
0.44869117
0.44788820
0.44708641
0.44628448
0.44548381
0.44468359
0.44388390
0.44308480
0.44228616
0.44148877
0.44069125
0.43989492
0.43909912
0.43830391
0.43750989
0.43671568
0.43592272
0.43513029
0.43433839
0.43354703
0.43275620
0.43196655
0.43117679
0.43038828
0.42960031
0.42881424
0.42802734
0.42724091
0.42645581
0.42567117
0.42488714
0.42410358
0.42332063
0.42253958
0.42175835
0.42097774
0.42019760
0.41941800
0.41863966
0.41786186
0.41708460
0.41630718
0.41553102
0.41475682
0.41398175
0.41320793
0.41243396
0.41166187
0.41088970
0.41011879
0.40934835
0.40857854
0.40780857
0.40704049
0.40627233
0.40550536
0.40473894
0.40397314
0.40320712
0.40244307
0.40167893
0.40091662
0.40015360
0.39939107
0.39863049
0.39786977
0.39711101
0.39635141
0.39559238
0.39483522
0.39407737
0.39332134
0.39256525
0.39181103
0.39105606
0.39030304
0.38954920
0.38879724
0.38804522
0.38729508
0.38654413
0.38579519
0.38504675
0.38429750
0.38355089
0.38280353
0.38205737
0.38131246
0.38056675
0.37982298
0.37907910
0.37833716
0.37759511
0.37685364
0.37611274
0.37537371
0.37463327
0.37389546
0.37315747
0.37242013
0.37168337
0.37094780
0.37021348
0.36947845
0.36874468
0.36801210
0.36728010
0.36654740
0.36581656
0.36508698
0.36435731
0.36362761
0.36289992
0.36217267
0.36144601
0.36072061
0.35999511
0.35926954
0.35854589
0.35782277
0.35710030
0.35637842
0.35565772
0.35493702
0.35421758
0.35349866
0.35277973
0.35206199
0.35134491
0.35062902
0.34991380
0.34919910
0.34848499
0.34777148
0.34705863
0.34634698
0.34563525
0.34492479
0.34421493
0.34350566
0.34279765
0.34208958
0.34138278
0.34067657
0.33997089
0.33926589
0.33856214
0.33785892
0.33715638
0.33645379
0.33575239
0.33505166
0.33435212
0.33365260
0.33295492
0.33225720
0.33156016
0.33086365
0.33016776
0.32947254
0.32877916
0.32808574
0.32739293
0.32670074
0.32600915
0.32531947
0.32462911
0.32394001
0.32325153
0.32256424
0.32187698
0.32119098
0.32050553
0.31982077
0.31913662
0.31845366
0.31777075
0.31708839
0.31640793
0.31572751
0.31504765
0.31436905
0.31369050
0.31301250
0.31233640
0.31165971
0.31098485
0.31030999
0.30963575
0.30896339
0.30829040
0.30761924
0.30694813
0.30627828
0.30560843
0.30493983
0.30427180
0.30360509
0.30293776
0.30227225
0.30160680
0.30094317
0.30027899
0.29961663
0.29895372
0.29829262
0.29763160
0.29697239
0.29631320
0.29565464
0.29499672
0.29433949
0.29368346
0.29302863
0.29237332
0.29171921
0.29106629
0.29041345
0.28976187
0.28911093
0.28846064
0.28781092
0.28716252
0.28651354
0.28586697
0.28522050
