corrn_curve_quartic
3.41517797
3.40883750
3.40250535
3.39619889
3.38990072
3.38362853
3.37737273
3.37113416
3.36491188
3.35870629
3.35252629
3.34635437
3.34020745
3.33406812
3.32795410
3.32185645
3.31577513
3.30971008
3.30366958
3.29763692
3.29162912
3.28562868
3.27966118
3.27370096
3.26775708
3.26182864
3.25591603
3.25002775
3.24414706
3.23829013
3.23244881
3.22662305
3.22081280
3.21501801
3.20924663
3.20348263
3.19774231
3.19201724
3.18629907
3.18060398
3.17492442
3.16926775
3.16361786
3.15798336
3.15237158
3.14677465
3.14119254
3.13561708
3.13007258
3.12453466
3.11901137
3.11351072
3.10801657
3.10254452
3.09708731
3.09164448
3.08621560
3.08080142
3.07540112
3.07001542
3.06465918
3.05930137
3.05396545
3.04864354
3.04332824
3.03804199
3.03276187
3.02750329
3.02225080
3.01701935
3.01180196
3.00659822
3.00140770
2.99623112
2.99106806
2.98592563
2.98078909
2.97567382
2.97057150
2.96548245
2.96039958
2.95534404
2.95029496
2.94525863
2.94023538
2.93523250
2.93024955
2.92526523
2.92030112
2.91534986
2.91041103
2.90549219
2.90057920
2.89568572
2.89080521
2.88593333
2.88107757
2.87623786
2.87140384
2.86659252
2.86179002
2.85700335
2.85222192
2.84745975
2.84270943
2.83796811
2.83324588
2.82853536
2.82384066
2.81915412
2.81447643
2.80981718
2.80517012
2.80053794
2.79591412
2.79130203
2.78670503
2.78212001
2.77754929
2.77299046
2.76844315
2.76390062
2.75937959
2.75486661
2.75036799
2.74588433
2.74140830
2.73694713
2.73249682
2.72805800
2.72362996
2.71921627
2.71481035
2.71041576
2.70603506
2.70166851
2.69730961
2.69296477
2.68863073
2.68431064
2.67999776
2.67569907
2.67141705
2.66713959
2.66287554
2.65862232
2.65437927
2.65014699
2.64592480
2.64171611
2.63751807
2.63333000
2.62915220
2.62498771
2.62083648
2.61669507
2.61256099
2.60843698
2.60432606
2.60022514
2.59613994
2.59205887
2.58799041
2.58393210
2.57988329
2.57585025
2.57182124
2.56780461
2.56379765
2.55980061
2.55581849
2.55184324
2.54787751
2.54392714
2.53998031
2.53604582
2.53212069
2.52820753
2.52430394
2.52040670
2.51652419
2.51264798
2.50878408
2.50493189
2.50108302
2.49725180
2.49342414
2.48960518
2.48580085
2.48200257
2.47821317
2.47443825
2.47066648
2.46691164
2.46315738
2.45942022
2.45568864
2.45196874
2.44825187
2.44455162
2.44085434
2.43717108
2.43349379
2.42983014
2.42616938
2.42252246
2.41887839
2.41525079
2.41162600
2.40801485
2.40440648
2.40081437
2.39722740
2.39364610
2.39007822
2.38651542
2.38296354
2.37942202
2.37588336
2.37235764
2.36884242
2.36532973
2.36183012
2.35833825
2.35484914
2.35137532
2.34790654
2.34444540
2.34099420
2.33755084
2.33411759
2.33068668
2.32726815
2.32385732
2.32045621
2.31705761
2.31367122
2.31029215
2.30692037
2.30355356
2.30019880
2.29685123
2.29351082
2.29018006
2.28685389
2.28353480
2.28022526
2.27692272
2.27362942
2.27034330
2.26706386
2.26379156
2.26052588
2.25726974
2.25401549
2.25077269
2.24753907
2.24430973
2.24108976
2.23787619
2.23467168
2.23147134
2.22827999
2.22509493
2.22191663
2.21874481
2.21558184
2.21242291
2.20927252
2.20613113
2.20299345
2.19986470
2.19674199
2.19362577
2.19051555
2.18741623
2.18432073
2.18123136
2.17814812
2.17507329
2.17200453
2.16893947
2.16588274
2.16283663
2.15979414
2.15675734
2.15372666
2.15070186
2.14768267
2.14467616
2.14166881
2.13867155
2.13567797
2.13268988
2.12971428
2.12673978
2.12377115
2.12080789
2.11785471
2.11490483
2.11196047
2.10902585
2.10609469
2.10316675
2.10025068
2.09733577
2.09442823
2.09152846
2.08863157
2.08574019
2.08285606
2.07997716
2.07710370
2.07423740
2.07137407
2.06852024
2.06566934
2.06282136
2.05998496
2.05714926
2.05432268
2.05149914
2.04868272
2.04586909
2.04306230
2.04026277
2.03746574
2.03467591
2.03188855
2.02911024
2.02633479
2.02356599
2.02080402
2.01804252
2.01528993
2.01253987
2.00979654
2.00705782
2.00432577
2.00159806
1.99887091
1.99615454
1.99343849
1.99073085
1.98802973
1.98532700
1.98263468
1.97994673
1.97725920
1.97458198
1.97190700
1.96923445
1.96657006
1.96391174
1.96125192
1.95860220
1.95595645
1.95331504
1.95067572
1.94804254
1.94541526
1.94279224
1.94016922
1.93755606
1.93494488
1.93233988
1.92973863
1.92713730
1.92454608
1.92195655
1.91937288
1.91679305
1.91421903
1.91164483
1.90907641
1.90651372
1.90395458
1.90140132
1.89884978
1.89630369
1.89376146
1.89122265
1.88868962
1.88615608
1.88363021
1.88110771
1.87858873
1.87607347
1.87356344
1.87105689
1.86855379
1.86605413
1.86355981
1.86106888
1.85858133
1.85609694
1.85361607
1.85114044
1.84866983
1.84620268
1.84373669
1.84127412
1.83881649
1.83636225
1.83391100
1.83146292
1.82901987
1.82658014
1.82414521
1.82171148
1.81928270
1.81685509
1.81443239
1.81201270
1.80959958
1.80718774
1.80477698
1.80237084
1.79996782
1.79757124
1.79517587
1.79278131
1.79039166
1.78800836
1.78562416
1.78324461
1.78086784
1.77849568
1.77612625
1.77375790
1.77139556
1.76903426
1.76667564
1.76432334
1.76197166
1.75962095
1.75727834
1.75493448
1.75259337
1.75025828
1.74792408
1.74559587
1.74326652
1.74093984
1.73861907
1.73629895
1.73398489
1.73166963
1.72936039
1.72705172
1.72474724
1.72244331
1.72014532
1.71784767
1.71555431
1.71326144
1.71097426
1.70868593
1.70640325
1.70412119
1.70184295
1.69956531
1.69729323
1.69502510
1.69275378
1.69048993
1.68822466
1.68596503
1.68370927
1.68145027
1.67919864
1.67694553
1.67469780
1.67245402
1.67020872
1.66796699
1.66572917
1.66349137
1.66125745
1.65902528
1.65679678
1.65456860
1.65234388
1.65012104
1.64789830
1.64568090
1.64346532
1.64125157
1.63903961
1.63682770
1.63462104
1.63241614
1.63021454
1.62801312
1.62581168
1.62361524
1.62142066
1.61922759
1.61703790
1.61484832
1.61266020
1.61047543
1.60829245
1.60611261
1.60393264
1.60175595
1.59958083
1.59740897
1.59523693
1.59306795
1.59090065
1.58873485
1.58657207
1.58440751
1.58224783
1.58008942
1.57793261
1.57577706
1.57362479
1.57147544
1.56932578
1.56717749
1.56503226
1.56288838
1.56074430
1.55860461
1.55646469
1.55432608
1.55219046
1.55005611
1.54792302
1.54579119
1.54366381
1.54153614
1.53940952
1.53728428
1.53516176
1.53303890
1.53091873
1.52880141
1.52668373
1.52456870
1.52245312
1.52034034
1.51823202
1.51612144
1.51401196
1.51190522
1.50980106
1.50769645
1.50559455
1.50349201
1.50139368
1.49929485
1.49719702
1.49510336
1.49300734
1.49091413
1.48882338
1.48673192
1.48464323
1.48255680
1.48046830
1.47838221
1.47630035
1.47421605
1.47213596
1.47005508
1.46797490
1.46589739
1.46382073
1.46174640
1.45967140
1.45759887
1.45552533
1.45345440
1.45138576
1.44931474
1.44724930
1.44518130
1.44311737
1.44105104
1.43899006
1.43692684
1.43486582
1.43280699
1.43074738
1.42869010
1.42663186
1.42457758
1.42252068
1.42046755
1.41841672
1.41636341
1.41431237
1.41226179
1.41021363
1.40816591
1.40611714
1.40407226
1.40202811
1.39998274
1.39793957
1.39589859
1.39385490
1.39181502
1.38977567
1.38773685
1.38569692
1.38366061
1.38162496
1.37958965
1.37755335
1.37552081
1.37348858
1.37145682
1.36942568
1.36739319
1.36536295
1.36333462
1.36130672
1.35927924
1.35725055
1.35522553
1.35319929
1.35117507
1.34915288
1.34712944
1.34510784
1.34308514
1.34106281
1.33904247
1.33702248
1.33500430
1.33298645
1.33096910
1.32895191
1.32693667
1.32492028
1.32290565
1.32089133
1.31887730
1.31686519
1.31485190
1.31284018
1.31082890
1.30881788
1.30680874
1.30479824
1.30278960
1.30078105
1.29877289
1.29676659
1.29476198
1.29275596
1.29075032
1.28874472
1.28673949
1.28473592
1.28273255
1.28072952
1.27872814
1.27672693
1.27472427
1.27272341
1.27072270
1.26872216
1.26672501
1.26472622
1.26272774
1.26072940
1.25873427
1.25673619
1.25473969
1.25274185
1.25074883
1.24875284
1.24675680
1.24476264
1.24277003
1.24077590
1.23878348
1.23679114
1.23479888
1.23280670
1.23081621
1.22882417
1.22683381
1.22484513
1.22285489
1.22086470
1.21887602
1.21688755
1.21490057
1.21291217
1.21092527
1.20893693
1.20695008
1.20496487
1.20297661
1.20099306
1.19900628
1.19702274
1.19503598
1.19305408
1.19106893
1.18908540
1.18710187
1.18511994
1.18313476
1.18115426
1.17917067
1.17719029
1.17520973
1.17322605
1.17124705
1.16926493
1.16728586
1.16530675
1.16332451
1.16134693
1.15936606
1.15738839
1.15541066
1.15342979
1.15145341
1.14947551
1.14749755
1.14552114
1.14354467
1.14156651
1.13958990
1.13761468
1.13563954
1.13366108
1.13168725
1.12971171
1.12773787
1.12576055
1.12378800
1.12181390
1.11983955
1.11786673
1.11589058
1.11391919
1.11194609
1.10997289
1.10800120
1.10602942
1.10405429
1.10208392
1.10011167
1.09814109
1.09617040
1.09419944
1.09222853
1.09025735
1.08828784
1.08631480
1.08434506
1.08237667
1.08040653
1.07843790
1.07646769
1.07449882
1.07253145
1.07056234
1.06859456
1.06662537
1.06465735
1.06268936
1.06072288
1.05875465
1.05678775
1.05482089
1.05285390
1.05088987
1.04892247
1.04695672
1.04499068
1.04302468
1.04105839
1.03909359
1.03712720
1.03516214
1.03320004
1.03123489
1.02927091
1.02730550
1.02534142
1.02337705
1.02141597
1.01945150
1.01748854
1.01552528
1.01356206
1.01160017
1.00963832
1.00767456
1.00571245
1.00375169
1.00178933
0.99982832
0.99786881
0.99590755
0.99394453
0.99198465
0.99002465
0.98806453
0.98610429
0.98414556
0.98218508
0.98022774
0.97826703
0.97630767
0.97434998
0.97239056
0.97043086
0.96847447
0.96651617
0.96455940
0.96260106
0.96064570
0.95868715
0.95673158
0.95477429
0.95281689
0.95086103
0.94890507
0.94695064
0.94499286
0.94303987
0.94108354
0.93913037
0.93717696
0.93522036
0.93326857
0.93131327
0.92935968
0.92740602
0.92545374
0.92350139
0.92154750
0.91959664
0.91764245
0.91569161
0.91374055
0.91178780
0.90983824
0.90788863
0.90593570
0.90398598
0.90203784
0.90008638
0.89813798
0.89618970
0.89423812
0.89229139
0.89034283
0.88839603
0.88644577
0.88449891
0.88255349
0.88060642
0.87865785
0.87671237
0.87476688
0.87282153
0.87087765
0.86893049
0.86698659
0.86504269
0.86309880
0.86115491
0.85921250
0.85726863
0.85532477
0.85338256
0.85144038
0.84949968
0.84755755
0.84561691
0.84367648
0.84173591
0.83979702
0.83785670
0.83591790
0.83397915
0.83204062
0.83010361
0.82816340
0.82622652
0.82428971
0.82235460
0.82041794
0.81848299
0.81654796
0.81461318
0.81267849
0.81074389
0.80880923
0.80687647
0.80494382
0.80301111
0.80107868
0.79914620
0.79721548
0.79528668
0.79335622
0.79142589
0.78949570
0.78756729
0.78563918
0.78370944
0.78178458
0.77985678
0.77793078
0.77600332
0.77407766
0.77215381
0.77022998
0.76830487
0.76638158
0.76445995
0.76253706
0.76061422
0.75869174
0.75677258
0.75485201
0.75293182
0.75101333
0.74909345
0.74717543
0.74525928
0.74334176
0.74142303
0.73950911
0.73759253
0.73567752
0.73376457
0.73185027
0.72993934
0.72802562
0.72611220
0.72420232
0.72229096
0.72038316
0.71847259
0.71656543
0.71465551
0.71274738
0.71084284
0.70893555
0.70703008
0.70512496
0.70322181
0.70131742
0.69941501
0.69751298
0.69561295
0.69371331
0.69181083
0.68991344
0.68801338
0.68611696
0.68421773
0.68232361
0.68042830
0.67853197
0.67663915
0.67474694
0.67285179
0.67096194
0.66906949
0.66717896
0.66529052
0.66340095
0.66151349
0.65962651
0.65774165
0.65585408
0.65397024
0.65208692
0.65020252
0.64832026
0.64643999
0.64456042
0.64267980
0.64080118
0.63892329
0.63704741
0.63517212
0.63329436
0.63142023
0.62954687
0.62767556
0.62580485
0.62393477
0.62206226
0.62019343
0.61832668
0.61645930
0.61459384
0.61272921
0.61086524
0.60900354
0.60714092
0.60528043
0.60341759
0.60155866
0.59970186
0.59784434
0.59598898
0.59413292
0.59227902
0.59042746
0.58857522
0.58672358
0.58487429
0.58302578
0.58117820
0.57933125
0.57748669
0.57564134
0.57380140
0.57195926
0.57011794
0.56827746
0.56643940
0.56460045
0.56276409
0.56092859
0.55909539
0.55726164
0.55543178
0.55360139
0.55177174
0.54994300
0.54811533
0.54629000
0.54446718
0.54264373
0.54082122
0.53899983
0.53718223
0.53536418
0.53354570
0.53172947
0.52991752
0.52810344
0.52629193
0.52447989
0.52267340
0.52086498
0.51905745
0.51725425
0.51545039
0.51364620
0.51184761
0.51004698
0.50824760
0.50645229
0.50465652
0.50286188
0.50107007
0.49927769
0.49748956
0.49570102
0.49391210
0.49212884
0.49034382
0.48856308
0.48678044
0.48500209
0.48322326
0.48144889
0.47967266
0.47790060
0.47612686
0.47435731
0.47258763
0.47082214
0.46905487
0.46729196
0.46552897
0.46376866
0.46200815
0.46025049
0.45849417
0.45674072
0.45498862
0.45323636
0.45148700
0.44974054
0.44799243
0.44624861
0.44450483
0.44276399
0.44102594
0.43928644
0.43755127
0.43581771
0.43408395
0.43235483
0.43062553
0.42889924
0.42717309
0.42544981
0.42372804
0.42200931
0.42028912
0.41857348
0.41685939
0.41514688
0.41343445
0.41172659
0.41002018
0.40831552
0.40661248
0.40490958
0.40320966
0.40151302
0.39981788
0.39812455
0.39643275
0.39474278
0.39305584
0.39136780
0.38968428
0.38800248
0.38632242
0.38464557
0.38296900
0.38129567
0.37962411
0.37795433
0.37628636
0.37462164
0.37295874
0.37129620
0.36963827
0.36798087
0.36632533
0.36467296
0.36302117
0.36137270
0.35972599
0.35808263
0.35643989
0.35480037
0.35316149
0.35152586
0.34989362
0.34826335
0.34663506
0.34500732
0.34338316
0.34176087
0.34014188
0.33852364
0.33691029
0.33529757
0.33368691
0.33207818
0.33047168
0.32886728
0.32726767
0.32566890
0.32407226
0.32247762
0.32088793
0.31929774
0.31771098
0.31612655
0.31454556
0.31296677
0.31138880
0.30981584
0.30824373
0.30667248
0.30510501
0.30354230
0.30198062
0.30041986
0.29886415
0.29730938
0.29575954
0.29420943
0.29266167
0.29112023
0.28957720
0.28804050
0.28650360
0.28496898
0.28343947
0.28191118
0.28038653
0.27886299
0.27734459
0.27582611
0.27431266
0.27280037
0.27129191
0.26978464
0.26828256
0.26678035
0.26528336
0.26378760
0.26229560
0.26080632
0.25931964
0.25783674
0.25635528
0.25487764
0.25340146
0.25193041
0.25046086
0.24899385
0.24753083
0.24606935
0.24461174
0.24315816
0.24170485
0.24025674
0.23881139
0.23736753
0.23592902
0.23449201
0.23305897
0.23162759
0.23020032
0.22877589
0.22735305
0.22593548
0.22452092
0.22310911
0.22170033
0.22029322
0.21889140
0.21749141
0.21609548
0.21470252
0.21331142
0.21192442
0.21054165
0.20916189
0.20778516
0.20641146
0.20503971
0.20367212
0.20230870
0.20094739
0.19959015
0.19823735
0.19688646
0.19553871
0.19419518
0.19285494
0.19151774
0.19018384
0.18885315
0.18752673
0.18620246
0.18488250
0.18356578
0.18225243
0.18094342
0.17963651
0.17833407
0.17703494
0.17573913
0.17444678
0.17315869
0.17187304
0.17059168
0.16931382
0.16803937
0.16676832
0.16550070
0.16423866
0.16297906
0.16172291
0.16047013
0.15922095
0.15797639
0.15673634
0.15549870
0.15426472
0.15303417
0.15180719
0.15058599
0.14936738
0.14815118
0.14693969
0.14573183
0.14452978
0.14333029
0.14213340
0.14094234
0.13975391
0.13857025
0.13738924
0.13621398
0.13504046
0.13387176
0.13270883
0.13154769
0.13039025
0.12923880
0.12809004
0.12694615
0.12580518
0.12466799
0.12353671
0.12240841
0.12128493
0.12016435
0.11904770
0.11793602
0.11682828
0.11572552
0.11462476
0.11353097
0.11243921
0.11135246
0.11026966
0.10919199
0.10811643
0.10704777
0.10598137
0.10492003
0.10386273
0.10281051
0.10176064
0.10071767
0.09967803
0.09864154
0.09761113
0.09658401
0.09556213
0.09454441
0.09353002
0.09252174
0.09151592
0.09051622
0.08952083
0.08852887
0.08754295
0.08656147
0.08558347
0.08460985
0.08364142
0.08267749
0.08171798
0.08076283
0.07981307
0.07886769
0.07792602
0.07698962
0.07605856
0.07513119
0.07420843
0.07329098
0.07237809
0.07146977
0.07056687
0.06966776
0.06877327
0.06788422
0.06699982
0.06612008
0.06524582
0.06437624
0.06351050
0.06264956
0.06179414
0.06094416
0.06009824
0.05925787
0.05842221
0.05759136
0.05676539
0.05594419
0.05512858
0.05431716
0.05351128
0.05271029
0.05191428
0.05112384
0.05033761
0.04955704
0.04878144
0.04801081
0.04724517
0.04648454
0.04572956
0.04497899
0.04423415
0.04349438
0.04276096
0.04203135
0.04130680
0.04058808
0.03987444
0.03916602
0.03846270
0.03776463
0.03707295
0.03638585
0.03570404
0.03502740
0.03435601
0.03369051
0.03303029
0.03237536
0.03172515
0.03108087
0.03044310
0.02980952
0.02918188
0.02855907
0.02794273
0.02733130
0.02672586
0.02612581
0.02553126
0.02494166
0.02435856
0.02378049
0.02320842
0.02264187
0.02208093
0.02152499
0.02097565
0.02043144
0.01989374
0.01936077
0.01883341
0.01831266
0.01779710
0.01728816
0.01678398
0.01628553
0.01579367
0.01530675
0.01482639
0.01435141
0.01388304
0.01341966
0.01296295
0.01251123
0.01206616
0.01162658
0.01119365
0.01076581
0.01034471
0.00992949
0.00951946
0.00911650
0.00871882
0.00832745
0.00794244
0.00756275
0.00718979
0.00682253
0.00646202
0.00610724
0.00575856
0.00541599
0.00508014
0.00474954
0.00442600
0.00410831
0.00379683
0.00349156
0.00319276
0.00290045
0.00261389
0.00233386
0.00206033
0.00179309
0.00153171
0.00127711
0.00102908
0.00078718
0.00055146
0.00032258
0.00010006
-0.00011604
-0.00032552
-0.00052874
-0.00072567
-0.00091576
-0.00109937
-0.00127645
-0.00144700
-0.00161087
-0.00176832
-0.00191905
-0.00206320
-0.00220086
-0.00233178
-0.00245605
-0.00257356
-0.00268439
-0.00278856
-0.00288602
-0.00297677
-0.00306077
-0.00313795
-0.00320844
-0.00327208
-0.00332893
-0.00337896
-0.00342212
-0.00345848
-0.00348794
-0.00351053
-0.00352623
-0.00353502
-0.00353689
-0.00353182
-0.00351980
-0.00350079
-0.00347480
-0.00344182
-0.00340184
-0.00335480
-0.00330079
-0.00323968
-0.00317148
-0.00309618
-0.00301376
-0.00292421
-0.00282768
-0.00272390
-0.00261294
-0.00249478
-0.00236940
-0.00223705
-0.00209720
-0.00195021
-0.00179595
-0.00163454
-0.00146567
-0.00128964
-0.00110626
-0.00091554
-0.00071744
-0.00051213
-0.00029924
-0.00007890
0.00014846
0.00038347
0.00062596
0.00087571
0.00113318
0.00139820
0.00167024
0.00195033
0.00223749
0.00253250
0.00283512
0.00314477
0.00346265
0.00378760
0.00412050
0.00446075
0.00480903
0.00516470
0.00552813
0.00589892
0.00627818
0.00666455
0.00705904
0.00746063
0.00787078
0.00828803
0.00871390
0.00914689
0.00958815
0.01003652
0.01049323
0.01095789
0.01143052
0.01191109
0.01239924
0.01289497
0.01339958
0.01391181
0.01443166
0.01496004
0.01549600
0.01604007
0.01659227
0.01715267
0.01772064
0.01829787
0.01888171
0.01947425
