corrn_curve_linear
-0.04997573
-0.04857504
-0.04717242
-0.04577173
-0.04436911
-0.04296853
-0.04156783
-0.04016725
-0.03876656
-0.03736587
-0.03596720
-0.03456661
-0.03316795
-0.03176726
-0.03036860
-0.02896994
-0.02757128
-0.02617262
-0.02477588
-0.02337722
-0.02198059
-0.02058192
-0.01918722
-0.01779048
-0.01639385
-0.01499712
-0.01360038
-0.01220568
-0.01080904
-0.00941434
-0.00801963
-0.00662493
-0.00523022
-0.00383551
-0.00244274
-0.00104803
0.00034465
0.00173732
0.00313203
0.00452481
0.00591749
0.00730824
0.00870101
0.01009369
0.01148444
0.01287519
0.01426594
0.01565872
0.01704744
0.01843819
0.01982894
0.02121766
0.02260841
0.02399724
0.02538596
0.02677468
0.02816350
0.02955222
0.03094104
0.03232977
0.03371453
0.03510335
0.03649015
0.03787694
0.03926566
0.04065043
0.04203722
0.04342199
0.04480878
0.04619365
0.04757841
0.04896318
0.05034805
0.05173281
0.05311758
0.05450042
0.05588528
0.05726802
0.05865086
0.06003370
0.06141846
0.06279937
0.06418211
0.06556495
0.06694778
0.06832859
0.06970748
0.07109031
0.07247112
0.07385193
0.07523284
0.07661173
0.07799254
0.07937142
0.08075020
0.08213010
0.08350898
0.08488685
0.08626664
0.08764349
0.08902136
0.09039822
0.09177710
0.09315395
0.09453091
0.09590878
0.09728461
0.09866056
0.10003538
0.10141132
0.10278817
0.10416310
0.10553793
0.10691184
0.10828676
0.10966169
0.11103560
0.11240941
0.11378241
0.11515531
0.11652821
0.11790313
0.11927502
0.12064792
0.12201990
0.12339077
0.12476275
0.12613362
0.12750459
0.12887546
0.13024643
0.13161639
0.13298736
0.13435823
0.13572818
0.13709713
0.13846708
0.13983602
0.14120497
0.14257289
0.14394194
0.14530986
0.14667586
0.14804379
0.14941081
0.15077772
0.15214473
0.15351165
0.15487866
0.15624466
0.15761056
0.15897656
0.16034256
0.16170755
0.16307152
0.16443559
0.16580058
0.16716556
0.16852954
0.16989351
0.17125555
0.17261952
0.17398258
0.17534554
0.17670860
0.17806963
0.17943259
0.18079463
0.18215667
0.18351862
0.18487873
0.18623976
0.18760079
0.18895980
0.19032083
0.19168084
0.19304086
0.19439996
0.19575896
0.19711898
0.19847706
0.19983617
0.20119415
0.20255123
0.20391033
0.20526639
0.20662438
0.20798247
0.20933853
0.21069560
0.21205267
0.21340772
0.21476479
0.21611893
0.21747600
0.21883003
0.22018518
0.22153921
0.22289527
0.22424839
0.22560354
0.22695665
0.22831068
0.22966279
0.23101692
0.23236903
0.23372316
0.23507425
0.23642737
0.23777846
0.23913157
0.24048165
0.24183284
0.24318494
0.24453502
0.24588621
0.24723628
0.24858545
0.24993654
0.25128570
0.25263385
0.25398402
0.25533217
0.25668032
0.25803040
0.25937753
0.26072568
0.26207382
0.26342106
0.26476819
0.26611431
0.26746246
0.26880868
0.27015480
0.27150001
0.27284714
0.27419235
0.27553755
0.27688276
0.27822888
0.27957307
0.28091726
0.28226146
0.28360463
0.28494883
0.28629302
0.28763620
0.28897937
0.29032164
0.29166380
0.29300607
0.29434823
0.29569050
0.29703164
0.29837482
0.29971607
0.30105631
0.30239756
0.30373769
0.30507793
0.30641715
0.30775739
0.30909661
0.31043593
0.31177516
0.31311438
0.31445259
0.31579181
0.31713012
0.31846731
0.31980562
0.32114281
0.32248011
0.32381730
0.32515459
0.32648986
0.32782614
0.32916242
0.33049870
0.33183397
0.33316923
0.33450551
0.33584078
0.33717402
0.33850827
0.33984262
0.34117687
0.34251113
0.34384548
0.34517679
0.34651104
0.34784336
0.34917660
0.35050994
0.35184024
0.35317256
0.35450478
0.35583711
0.35716740
0.35849871
0.35983002
0.36115941
0.36248970
0.36382101
0.36514938
0.36647968
0.36780906
0.36913733
0.37046671
0.37179599
0.37312436
0.37445273
0.37578100
0.37710835
0.37843672
0.37976306
0.38109041
0.38241878
0.38374411
0.38507146
0.38639689
0.38772323
0.38904855
0.39037489
0.39170032
0.39302463
0.39435006
0.39567437
0.39699980
0.39832320
0.39964751
0.40097090
0.40229329
0.40361770
0.40494009
0.40626348
0.40758587
0.40890825
0.41022962
0.41155109
0.41287449
0.41419485
0.41551723
0.41683769
0.41815713
0.41947951
0.42079896
0.42211840
0.42343977
0.42475820
0.42607764
0.42739799
0.42871642
0.43003394
0.43135429
0.43267171
0.43398922
0.43530664
0.43662506
0.43794248
0.43925898
0.44057538
0.44189381
0.44320929
0.44452579
0.44584118
0.44715666
0.44847418
0.44978855
0.45110404
0.45241851
0.45373298
0.45504644
0.45636193
0.45767640
0.45898986
0.46030342
0.46161586
0.46292932
0.46424186
0.46555431
0.46686685
0.46817828
0.46949184
0.47080327
0.47211480
0.47342633
0.47473776
0.47604827
0.47735879
0.47866931
0.47997982
0.48128933
0.48259883
0.48390833
0.48521793
0.48652743
0.48783592
0.48914350
0.49045097
0.49175956
0.49306805
0.49437562
0.49568310
0.49699067
0.49829824
0.49960481
0.50091126
0.50221681
0.50352337
0.50482892
0.50613548
0.50744102
0.50874657
0.51005019
0.51135472
0.51266027
0.51396490
0.51526943
0.51657204
0.51787555
0.51918019
0.52048370
0.52178529
0.52308891
0.52439152
0.52569412
0.52699571
0.52829730
0.52959981
0.53090048
0.53220207
0.53350366
0.53480322
0.53610390
0.53740549
0.53870404
0.54000472
0.54130529
0.54260394
0.54390350
0.54520114
0.54650080
0.54780036
0.54909800
0.55039664
0.55169326
0.55299191
0.55428853
0.55558617
0.55688279
0.55818042
0.55947603
0.56077275
0.56206835
0.56336497
0.56465967
0.56595629
0.56725098
0.56854659
0.56984128
0.57113688
0.57243056
0.57372323
0.57501893
0.57631160
0.57760629
0.57889895
0.58019060
0.58148530
0.58277695
0.58407062
0.58536238
0.58665301
0.58794568
0.58923743
0.59052806
0.59181981
0.59311045
0.59440119
0.59569091
0.59698154
0.59827127
0.59956099
0.60085173
0.60214043
0.60342914
0.60471785
0.60600656
0.60729628
0.60858397
0.60987167
0.61115845
0.61244614
0.61373485
0.61502163
0.61630831
0.61759509
0.61888086
0.62016754
0.62145432
0.62274009
0.62402575
0.62531050
0.62659627
0.62788102
0.62916578
0.63044951
0.63173427
0.63301810
0.63430184
0.63558558
0.63686841
0.63815316
0.63943588
0.64071871
0.64200143
0.64328426
0.64456596
0.64584676
0.64712857
0.64841038
0.64969118
0.65097198
0.65225368
0.65353357
0.65481436
0.65609516
0.65737494
0.65865473
0.65993451
0.66121429
0.66249214
0.66377091
0.66504978
0.66632855
0.66760640
0.66888517
0.67016303
0.67143987
0.67271762
0.67399446
0.67527232
0.67654916
0.67782397
0.67910081
0.68037765
0.68165347
0.68292839
0.68420421
0.68547903
0.68675485
0.68802875
0.68930356
0.69057838
0.69185126
0.69312617
0.69439997
0.69567286
0.69694675
0.69821954
0.69949151
0.70076531
0.70203819
0.70330905
0.70458193
0.70585279
0.70712466
0.70839663
0.70966749
0.71093834
0.71220828
0.71347914
0.71474898
0.71601994
0.71728978
0.71855871
0.71982957
0.72109748
0.72236742
0.72363534
0.72490518
0.72617218
0.72744101
0.72870892
0.72997592
0.73124384
0.73251074
0.73377865
0.73504454
0.73631245
0.73757844
0.73884341
0.74011031
0.74137620
0.74264219
0.74390706
0.74517203
0.74643802
0.74770198
0.74896583
0.75023081
0.75149476
0.75275771
0.75402268
0.75528563
0.75654857
0.75781151
0.75907547
0.76033750
0.76159943
0.76286146
0.76412441
0.76538532
0.76664634
0.76790736
0.76916827
0.77043030
0.77169122
0.77295122
0.77421123
0.77547123
0.77673225
0.77799123
0.77925124
0.78051022
0.78176820
0.78302719
0.78428526
0.78554425
0.78680324
0.78806121
0.78931919
0.79057625
0.79183331
0.79309027
0.79434733
0.79560338
0.79686034
0.79811638
0.79937243
0.80062848
0.80188351
0.80313945
0.80439459
0.80564962
0.80690465
0.80815867
0.80941370
0.81066772
0.81192184
0.81317586
0.81442886
0.81568095
0.81693406
0.81818706
0.81944017
0.82069317
0.82194526
0.82319735
0.82444934
0.82570042
0.82695149
0.82820358
0.82945466
0.83070574
0.83195681
0.83320586
0.83445603
0.83570609
0.83695615
0.83820428
0.83945435
0.84070350
0.84195356
0.84320068
0.84444973
0.84569888
0.84694691
0.84819403
0.84944217
0.85068929
0.85193641
0.85318353
0.85443065
0.85567675
0.85692387
0.85816998
0.85941507
0.86066118
0.86190729
0.86315248
0.86439757
0.86564175
0.86688684
0.86813102
0.86937611
0.87062029
0.87186346
0.87310855
0.87435070
0.87559488
0.87683703
0.87808121
0.87932234
0.88056551
0.88180766
0.88304981
0.88429094
0.88553411
0.88677433
0.88801648
0.88925660
0.89049683
0.89173898
0.89297819
0.89421932
0.89545853
0.89669774
0.89793888
0.89917707
0.90041729
0.90165549
0.90289368
0.90413380
0.90537109
0.90660928
0.90784747
0.90908466
0.91032184
0.91156003
0.91279721
0.91403348
0.91526964
0.91650784
0.91774309
0.91897936
0.92021451
0.92145179
0.92268603
0.92392118
0.92515643
0.92639067
0.92762694
0.92886016
0.93009440
0.93132864
0.93256187
0.93379509
0.93503034
0.93626255
0.93749588
0.93872809
0.93996030
0.94119261
0.94242482
0.94365713
0.94488833
0.94612165
0.94735285
0.94858313
0.94981443
0.95104471
0.95227591
0.95350619
0.95473546
0.95596574
0.95719511
0.95842529
0.95965466
0.96088393
0.96211218
0.96334145
0.96456981
0.96579806
0.96702631
0.96825264
0.96948100
0.97070824
0.97193558
0.97316282
0.97439016
0.97561648
0.97684372
0.97807005
0.97929445
0.98052068
0.98174609
0.98297232
0.98419763
0.98542304
0.98664633
0.98787164
0.98909594
0.99032034
0.99154463
0.99276802
0.99399130
0.99521570
0.99643899
0.99766136
0.99888464
1.00010701
1.00132837
1.00255074
1.00377412
1.00499548
1.00621684
1.00743819
1.00865955
1.00987989
1.01110125
1.01232058
1.01354193
1.01476238
1.01598171
1.01720205
1.01842249
1.01964081
1.02086023
1.02207865
1.02329798
1.02451538
1.02573471
1.02695211
1.02817052
1.02938894
1.03060634
1.03182374
1.03304012
1.03425854
1.03547391
1.03669131
1.03790668
1.03912216
1.04033956
1.04155392
1.04277040
1.04398578
1.04520115
1.04641561
1.04763007
1.04884544
1.05005888
1.05127436
1.05248770
1.05370114
1.05491560
1.05612803
1.05734046
1.05855492
1.05976735
1.06097877
1.06219222
1.06340373
1.06461515
1.06582859
1.06703900
1.06825051
1.06946091
1.07067345
1.07188385
1.07309334
1.07430384
1.07551526
1.07672475
1.07793423
1.07914362
1.08035210
1.08156260
1.08277107
1.08397955
1.08518802
1.08639650
1.08760406
1.08881253
1.09002101
1.09122847
1.09243593
1.09364248
1.09484994
1.09605648
1.09726293
1.09846948
1.09967501
1.10088146
1.10208699
1.10329252
1.10449795
1.10570247
1.10690902
1.10811354
1.10931806
1.11052156
1.11172608
1.11292958
1.11413319
1.11533669
1.11654020
1.11774370
1.11894731
1.12014980
1.12135229
1.12255488
1.12375737
1.12495996
1.12616154
1.12736200
1.12856358
1.12976515
1.13096673
1.13216729
1.13336776
1.13456933
1.13576797
1.13696853
1.13816808
1.13936864
1.14056819
1.14176673
1.14296536
1.14416491
1.14536344
1.14656106
1.14775960
1.14895823
1.15015677
1.15135338
1.15255100
1.15374852
1.15494512
1.15614274
1.15733935
1.15853494
1.15973155
1.16092907
1.16212375
1.16332026
1.16451595
1.16571053
1.16690612
1.16809979
1.16929538
1.17049097
1.17168453
1.17287921
1.17407187
1.17526644
1.17645909
1.17765367
1.17884734
1.18003897
1.18123254
1.18242519
1.18361784
1.18480948
1.18600213
1.18719376
1.18838540
1.18957602
1.19076665
1.19195930
1.19314901
1.19434064
1.19553025
1.19672189
1.19791058
1.19910029
1.20029091
1.20147961
1.20266820
1.20385893
1.20504661
1.20623622
1.20742491
1.20861259
1.20980129
1.21098897
1.21217665
1.21336331
1.21455201
1.21573868
1.21692534
1.21811302
1.21929969
1.22048544
1.22167110
1.22285776
1.22404352
1.22522917
1.22641391
1.22759865
1.22878531
1.22997005
1.23115469
1.23233841
1.23352214
1.23470586
1.23589152
1.23707524
1.23825805
1.23944168
1.24062449
1.24180720
1.24298991
1.24417161
1.24535432
1.24653611
1.24771984
1.24890154
1.25008232
1.25126401
1.25244480
1.25362649
1.25480728
1.25598705
1.25716773
1.25834851
1.25952828
1.26070805
1.26188772
1.26306749
1.26424624
1.26542601
1.26660284
1.26778159
1.26896035
1.27013910
1.27131684
1.27249570
1.27367344
1.27485118
1.27602801
1.27720575
1.27838156
1.27955829
1.28073511
1.28191194
1.28308867
1.28426448
1.28543928
1.28661509
1.28779090
1.28896662
1.29014050
1.29131530
1.29249101
1.29366591
1.29483868
1.29601348
1.29718727
1.29836206
1.29953392
1.30070771
1.30188159
1.30305335
1.30422622
1.30540000
1.30657085
1.30774372
1.30891649
1.31008733
1.31125919
1.31243105
1.31360179
1.31477364
1.31594347
1.31711432
1.31828617
1.31945509
1.32062593
1.32179474
1.32296559
1.32413440
1.32530433
1.32647213
1.32764196
1.32880986
1.32997969
1.33114759
1.33231641
1.33348329
1.33465221
1.33581910
1.33698690
1.33815378
1.33932168
1.34048857
1.34165546
1.34282133
1.34398720
1.34515409
1.34631996
1.34748482
1.34865171
1.34981667
1.35098254
1.35214740
1.35331134
1.35447722
1.35564116
1.35680501
1.35796997
1.35913280
1.36029674
1.36145967
1.36262352
1.36378645
1.36494938
1.36611129
1.36727524
1.36843716
1.36959907
1.37076099
1.37192392
1.37308482
1.37424583
1.37540673
1.37656763
1.37772955
1.37889055
1.38005044
1.38121043
1.38237032
1.38353031
1.38469020
1.38584917
1.38701007
1.38816905
1.38932802
1.39048700
1.39164496
1.39280394
1.39396190
1.39511986
1.39627782
1.39743578
1.39859273
1.39974967
1.40090763
1.40206367
1.40322061
1.40437756
1.40553359
1.40669054
1.40784647
1.40900251
1.41015752
1.41131346
1.41246848
1.41362441
1.41477943
1.41593343
1.41708744
1.41824144
1.41939646
1.42055037
1.42170437
1.42285746
1.42401147
1.42516344
1.42631643
1.42746942
1.42862252
1.42977551
1.43092850
1.43207956
1.43323154
1.43438351
1.43553559
1.43668564
1.43783762
1.43898868
1.44013964
1.44128969
1.44243974
1.44359080
1.44473984
1.44588989
1.44704095
1.44819090
1.44933902
1.45048806
1.45163810
1.45278613
1.45393516
1.45508227
1.45623130
1.45738034
1.45852643
1.45967546
1.46082156
1.46196958
1.46311770
1.46426379
1.46541080
1.46655689
1.46770400
1.46884908
1.46999608
1.47114116
1.47228726
1.47343234
1.47457843
1.47572249
1.47686859
1.47801265
1.47915773
1.48030190
1.48144596
1.48259003
1.48373318
1.48487724
1.48602039
1.48716446
1.48830659
1.48944964
1.49059280
1.49173493
1.49287798
1.49402012
1.49516124
1.49630429
1.49744542
1.49858654
1.49972868
1.50086879
1.50200991
1.50315012
1.50429124
1.50543135
1.50657146
1.50771258
1.50885178
1.50999087
1.51113007
1.51226916
1.51340927
1.51454745
1.51568655
1.51682473
1.51796291
1.51910200
1.52024018
1.52137735
1.52251452
1.52365169
1.52478885
1.52592693
1.52706410
1.52820035
1.52933742
1.53047367
1.53160881
1.53274497
1.53388112
1.53501636
1.53615150
1.53728674
1.53842187
1.53955701
1.54069124
1.54182638
1.54296060
1.54409483
1.54522895
1.54636216
1.54749639
1.54862960
1.54976281
1.55089602
1.55202913
1.55316143
1.55429454
1.55542684
1.55655903
1.55769123
1.55882343
1.55995563
1.56108589
1.56221708
1.56334826
1.56447954
1.56561073
1.56674089
1.56787015
1.56900042
1.57013059
1.57126086
1.57239113
1.57351937
1.57464852
1.57577879
1.57690805
1.57803730
1.57916453
1.58029277
1.58142202
1.58254925
1.58367749
1.58480472
1.58593296
1.58705927
1.58818751
1.58931474
1.59044004
1.59156727
1.59269459
1.59381979
1.59494611
1.59607141
1.59719762
1.59832393
1.59944822
1.60057341
1.60169770
1.60282300
1.60394830
1.60507258
1.60619687
1.60732014
1.60844544
1.60956770
1.61069198
1.61181525
1.61293862
1.61406088
1.61518516
1.61630651
1.61742978
1.61855204
1.61967439
1.62079574
1.62191901
1.62303934
1.62416058
1.62528294
1.62640327
1.62752461
1.62864484
1.62976517
1.63088651
1.63200582
1.63312717
1.63424648
1.63536580
1.63648613
1.63760453
1.63872283
1.63984214
1.64096146
1.64207986
1.64319816
1.64431646
1.64543486
1.64655215
1.64766954
1.64878784
1.64990523
1.65102160
1.65213899
1.65325627
1.65437265
1.65548902
1.65660539
1.65772075
1.65883712
1.65995350
1.66106886
1.66218422
1.66329957
1.66441392
1.66552826
1.66664372
1.66775908
1.66887343
1.66998686
1.67110120
1.67221453
1.67332797
1.67444140
1.67555473
1.67666816
1.67778058
1.67889391
1.68000632
1.68111874
1.68223106
1.68334246
1.68445488
1.68556628
1.68667768
1.68778909
1.68890049
1.69001189
1.69112238
1.69223379
1.69334418
1.69445456
1.69556303
1.69667341
1.69778390
1.69889328
1.70000275
1.70111213
1.70222160
1.70333098
1.70443843
1.70554689
1.70665525
1.70776371
1.70887217
1.70997962
1.71108706
1.71219451
1.71330297
1.71441042
1.71551584
1.71662329
1.71772972
1.71883717
1.71994269
1.72104912
1.72215454
1.72326006
1.72436548
1.72547191
1.72657641
1.72768183
1.72878634
1.72989084
1.73099525
1.73210077
1.73320426
1.73430866
1.73541124
1.73651565
1.73762015
1.73872263
1.73982612
1.74092758
1.74203107
1.74313456
1.74423613
1.74533952
1.74644108
1.74754356
1.74864411
1.74974659
1.75084703
1.75194951
1.75305006
1.75415152
1.75525106
1.75635262
1.75745206
1.75855159
1.75965316
1.76075168
1.76185213
1.76295166
1.76405018
1.76515073
1.76624925
1.76734879
1.76844629
1.76954482
1.77064334
1.77174186
1.77283845
1.77393799
1.77503448
1.77613209
1.77722959
1.77832710
1.77942369
1.78051927
1.78161678
1.78271327
1.78380885
1.78490443
1.78600194
1.78709752
1.78819208
1.78928766
1.79038416
1.79147852
1.79257308
1.79366765
1.79476120
1.79585576
1.79695134
1.79804489
1.79913855
1.80023210
1.80132565
1.80241829
1.80351184
1.80460437
1.80569701
1.80679056
1.80788320
1.80897574
1.81006736
1.81115888
1.81225051
1.81334213
1.81443375
1.81552527
1.81661588
1.81770751
1.81879812
1.81988873
1.82097934
1.82206893
1.82315954
1.82424913
1.82533873
1.82642843
1.82751802
1.82860660
1.82969528
1.83078386
1.83187346
1.83296214
1.83405072
1.83513839
1.83622697
1.83731362
1.83840129
1.83948886
1.84057652
1.84166419
1.84275176
1.84383740
1.84492405
1.84601070
1.84709736
1.84818401
1.84926864
1.85035529
1.85144093
1.85252657
1.85361129
1.85469693
1.85578156
1.85686628
1.85795091
1.85903553
1.86011924
1.86120387
1.86228859
1.86337129
1.86445490
1.86553861
1.86662131
1.86770492
1.86878863
1.86987032
1.87095393
1.87203561
1.87311831
1.87420101
1.87528167
1.87636437
1.87744514
1.87852682
1.87960749
1.88068918
1.88176985
1.88285062
1.88393027
1.88501195
1.88609171
1.88717238
1.88825112
1.88933179
1.89041053
1.89149120
1.89256994
1.89364959
1.89472732
1.89580606
1.89688481
1.89796355
1.89904219
1.90011991
1.90119673
1.90227537
1.90335310
1.90442991
1.90550764
1.90658435
1.90766106
1.90873778
1.90981459
1.91089029
1.91196802
1.91304280
1.91411850
