corrn_curve_cubic
1.14776260
1.14753504
1.14730738
1.14707962
1.14685177
1.14662383
1.14639579
1.14616765
1.14593942
1.14571109
1.14548267
1.14525415
1.14502554
1.14479683
1.14456802
1.14433912
1.14411013
1.14388104
1.14365186
1.14342258
1.14319320
1.14296373
1.14273417
1.14250451
1.14227475
1.14204490
1.14181496
1.14158492
1.14135478
1.14112455
1.14089423
1.14066381
1.14043329
1.14020269
1.13997198
1.13974118
1.13951029
1.13927930
1.13904822
1.13881705
1.13858577
1.13835441
1.13812295
1.13789139
1.13765975
1.13742800
1.13719617
1.13696423
1.13673221
1.13650009
1.13626787
1.13603556
1.13580316
1.13557066
1.13533807
1.13510539
1.13487261
1.13463973
1.13440676
1.13417370
1.13394055
1.13370730
1.13347395
1.13324052
1.13300699
1.13277336
1.13253964
1.13230583
1.13207192
1.13183792
1.13160383
1.13136964
1.13113536
1.13090098
1.13066652
1.13043195
1.13019730
1.12996255
1.12972771
1.12949277
1.12925774
1.12902262
1.12878741
1.12855210
1.12831669
1.12808120
1.12784561
1.12760993
1.12737415
1.12713828
1.12690232
1.12666627
1.12643012
1.12619388
1.12595755
1.12572112
1.12548460
1.12524799
1.12501128
1.12477448
1.12453759
1.12430061
1.12406353
1.12382636
1.12358910
1.12335175
1.12311430
1.12287676
1.12263913
1.12240140
1.12216358
1.12192567
1.12168767
1.12144958
1.12121139
1.12097311
1.12073474
1.12049627
1.12025771
1.12001907
1.11978032
1.11954149
1.11930256
1.11906355
1.11882444
1.11858523
1.11834594
1.11810655
1.11786708
1.11762750
1.11738784
1.11714809
1.11690824
1.11666830
1.11642827
1.11618815
1.11594794
1.11570763
1.11546724
1.11522675
1.11498617
1.11474550
1.11450473
1.11426388
1.11402293
1.11378189
1.11354076
1.11329954
1.11305823
1.11281683
1.11257533
1.11233374
1.11209207
1.11185030
1.11160844
1.11136648
1.11112444
1.11088231
1.11064008
1.11039777
1.11015536
1.10991286
1.10967027
1.10942759
1.10918482
1.10894196
1.10869900
1.10845596
1.10821282
1.10796960
1.10772628
1.10748287
1.10723937
1.10699579
1.10675211
1.10650834
1.10626448
1.10602052
1.10577648
1.10553235
1.10528813
1.10504381
1.10479941
1.10455492
1.10431033
1.10406566
1.10382089
1.10357603
1.10333109
1.10308605
1.10284093
1.10259571
1.10235040
1.10210501
1.10185952
1.10161394
1.10136828
1.10112252
1.10087667
1.10063074
1.10038471
1.10013859
1.09989239
1.09964609
1.09939971
1.09915323
1.09890666
1.09866001
1.09841326
1.09816643
1.09791951
1.09767249
1.09742539
1.09717820
1.09693091
1.09668354
1.09643608
1.09618853
1.09594089
1.09569316
1.09544534
1.09519744
1.09494944
1.09470135
1.09445318
1.09420491
1.09395656
1.09370812
1.09345958
1.09321096
1.09296225
1.09271345
1.09246457
1.09221559
1.09196652
1.09171737
1.09146813
1.09121879
1.09096937
1.09071986
1.09047026
1.09022058
1.08997080
1.08972094
1.08947098
1.08922094
1.08897081
1.08872059
1.08847029
1.08821989
1.08796941
1.08771884
1.08746817
1.08721743
1.08696659
1.08671566
1.08646465
1.08621355
1.08596236
1.08571108
1.08545971
1.08520826
1.08495671
1.08470508
1.08445336
1.08420156
1.08394966
1.08369768
1.08344561
1.08319345
1.08294121
1.08268887
1.08243645
1.08218394
1.08193134
1.08167866
1.08142589
1.08117303
1.08092008
1.08066704
1.08041392
1.08016071
1.07990741
1.07965403
1.07940056
1.07914700
1.07889335
1.07863961
1.07838579
1.07813188
1.07787789
1.07762380
1.07736963
1.07711538
1.07686103
1.07660660
1.07635208
1.07609747
1.07584278
1.07558800
1.07533313
1.07507818
1.07482314
1.07456801
1.07431280
1.07405750
1.07380211
1.07354663
1.07329107
1.07303543
1.07277969
1.07252387
1.07226796
1.07201197
1.07175589
1.07149972
1.07124347
1.07098713
1.07073070
1.07047419
1.07021759
1.06996090
1.06970413
1.06944727
1.06919033
1.06893330
1.06867618
1.06841898
1.06816169
1.06790432
1.06764686
1.06738931
1.06713168
1.06687396
1.06661615
1.06635826
1.06610029
1.06584223
1.06558408
1.06532584
1.06506753
1.06480912
1.06455063
1.06429205
1.06403339
1.06377464
1.06351581
1.06325689
1.06299789
1.06273880
1.06247963
1.06222036
1.06196102
1.06170159
1.06144207
1.06118247
1.06092278
1.06066301
1.06040315
1.06014321
1.05988319
1.05962307
1.05936288
1.05910259
1.05884223
1.05858177
1.05832123
1.05806061
1.05779991
1.05753911
1.05727824
1.05701727
1.05675623
1.05649510
1.05623388
1.05597258
1.05571119
1.05544972
1.05518817
1.05492653
1.05466481
1.05440300
1.05414111
1.05387913
1.05361707
1.05335492
1.05309269
1.05283038
1.05256798
1.05230550
1.05204293
1.05178028
1.05151754
1.05125472
1.05099182
1.05072883
1.05046576
1.05020260
1.04993936
1.04967604
1.04941263
1.04914914
1.04888557
1.04862191
1.04835816
1.04809434
1.04783043
1.04756643
1.04730235
1.04703819
1.04677395
1.04650962
1.04624521
1.04598071
1.04571613
1.04545147
1.04518672
1.04492189
1.04465698
1.04439198
1.04412690
1.04386174
1.04359649
1.04333116
1.04306575
1.04280026
1.04253468
1.04226901
1.04200327
1.04173744
1.04147153
1.04120553
1.04093946
1.04067330
1.04040705
1.04014073
1.03987432
1.03960783
1.03934125
1.03907460
1.03880786
1.03854103
1.03827413
1.03800714
1.03774007
1.03747292
1.03720568
1.03693836
1.03667096
1.03640348
1.03613591
1.03586827
1.03560054
1.03533272
1.03506483
1.03479685
1.03452879
1.03426065
1.03399243
1.03372412
1.03345573
1.03318726
1.03291871
1.03265008
1.03238136
1.03211256
1.03184368
1.03157472
1.03130568
1.03103655
1.03076734
1.03049805
1.03022868
1.02995923
1.02968970
1.02942008
1.02915038
1.02888060
1.02861074
1.02834080
1.02807077
1.02780067
1.02753048
1.02726021
1.02698986
1.02671943
1.02644892
1.02617833
1.02590765
1.02563689
1.02536606
1.02509514
1.02482414
1.02455306
1.02428189
1.02401065
1.02373933
1.02346792
1.02319643
1.02292487
1.02265322
1.02238149
1.02210968
1.02183779
1.02156582
1.02129376
1.02102163
1.02074942
1.02047712
1.02020475
1.01993229
1.01965975
1.01938714
1.01911444
1.01884166
1.01856880
1.01829586
1.01802284
1.01774974
1.01747656
1.01720330
1.01692996
1.01665654
1.01638304
1.01610946
1.01583580
1.01556205
1.01528823
1.01501433
1.01474035
1.01446629
1.01419214
1.01391792
1.01364362
1.01336924
1.01309477
1.01282023
1.01254561
1.01227091
1.01199613
1.01172127
1.01144633
1.01117131
1.01089621
1.01062103
1.01034577
1.01007043
1.00979501
1.00951951
1.00924394
1.00896828
1.00869254
1.00841673
1.00814083
1.00786486
1.00758880
1.00731267
1.00703646
1.00676017
1.00648380
1.00620735
1.00593082
1.00565421
1.00537753
1.00510076
1.00482392
1.00454699
1.00426999
1.00399291
1.00371575
1.00343851
1.00316119
1.00288379
1.00260632
1.00232876
1.00205113
1.00177342
1.00149563
1.00121776
1.00093981
1.00066178
1.00038368
1.00010550
0.99982723
0.99954889
0.99927048
0.99899198
0.99871340
0.99843475
0.99815602
0.99787721
0.99759832
0.99731935
0.99704031
0.99676119
0.99648198
0.99620271
0.99592335
0.99564391
0.99536440
0.99508481
0.99480514
0.99452539
0.99424557
0.99396567
0.99368568
0.99340563
0.99312549
0.99284528
0.99256498
0.99228462
0.99200417
0.99172364
0.99144304
0.99116236
0.99088161
0.99060077
0.99031986
0.99003887
0.98975780
0.98947666
0.98919544
0.98891414
0.98863276
0.98835131
0.98806978
0.98778817
0.98750648
0.98722472
0.98694288
0.98666096
0.98637897
0.98609690
0.98581475
0.98553253
0.98525023
0.98496785
0.98468539
0.98440286
0.98412025
0.98383756
0.98355480
0.98327196
0.98298905
0.98270605
0.98242298
0.98213984
0.98185661
0.98157331
0.98128994
0.98100649
0.98072296
0.98043935
0.98015567
0.97987191
0.97958808
0.97930417
0.97902018
0.97873612
0.97845198
0.97816776
0.97788347
0.97759910
0.97731466
0.97703014
0.97674554
0.97646087
0.97617612
0.97589129
0.97560639
0.97532142
0.97503636
0.97475123
0.97446603
0.97418075
0.97389539
0.97360996
0.97332446
0.97303887
0.97275321
0.97246748
0.97218167
0.97189578
0.97160982
0.97132379
0.97103767
0.97075149
0.97046522
0.97017888
0.96989247
0.96960598
0.96931942
0.96903278
0.96874606
0.96845927
0.96817241
0.96788546
0.96759845
0.96731136
0.96702419
0.96673695
0.96644963
0.96616224
0.96587478
0.96558723
0.96529962
0.96501193
0.96472416
0.96443632
0.96414840
0.96386041
0.96357235
0.96328421
0.96299599
0.96270770
0.96241934
0.96213090
0.96184239
0.96155380
0.96126514
0.96097640
0.96068759
0.96039870
0.96010974
0.95982071
0.95953160
0.95924242
0.95895316
0.95866383
0.95837442
0.95808494
0.95779539
0.95750576
0.95721605
0.95692628
0.95663643
0.95634650
0.95605650
0.95576643
0.95547628
0.95518606
0.95489576
0.95460540
0.95431495
0.95402444
0.95373385
0.95344318
0.95315244
0.95286163
0.95257075
0.95227979
0.95198876
0.95169765
0.95140647
0.95111522
0.95082389
0.95053249
0.95024101
0.94994947
0.94965785
0.94936615
0.94907439
0.94878254
0.94849063
0.94819864
0.94790658
0.94761445
0.94732224
0.94702996
0.94673761
0.94644518
0.94615268
0.94586011
0.94556746
0.94527475
0.94498195
0.94468909
0.94439615
0.94410314
0.94381006
0.94351690
0.94322367
0.94293037
0.94263700
0.94234355
0.94205003
0.94175644
0.94146278
0.94116904
0.94087523
0.94058135
0.94028739
0.93999336
0.93969926
0.93940509
0.93911084
0.93881653
0.93852214
0.93822768
0.93793314
0.93763853
0.93734386
0.93704910
0.93675428
0.93645939
0.93616442
0.93586938
0.93557427
0.93527908
0.93498383
0.93468850
0.93439310
0.93409763
0.93380208
0.93350647
0.93321078
0.93291502
0.93261919
0.93232329
0.93202731
0.93173127
0.93143515
0.93113896
0.93084270
0.93054637
0.93024996
0.92995348
0.92965694
0.92936032
0.92906363
0.92876687
0.92847003
0.92817313
0.92787615
0.92757910
0.92728198
0.92698479
0.92668753
0.92639020
0.92609280
0.92579532
0.92549777
0.92520016
0.92490247
0.92460471
0.92430688
0.92400898
0.92371100
0.92341296
0.92311485
0.92281666
0.92251840
0.92222008
0.92192168
0.92162321
0.92132467
0.92102606
0.92072738
0.92042863
0.92012981
0.91983091
0.91953195
0.91923291
0.91893381
0.91863463
0.91833539
0.91803607
0.91773668
0.91743723
0.91713770
0.91683810
0.91653843
0.91623869
0.91593889
0.91563901
0.91533906
0.91503904
0.91473895
0.91443879
0.91413856
0.91383826
0.91353789
0.91323745
0.91293693
0.91263635
0.91233570
0.91203498
0.91173419
0.91143333
0.91113240
0.91083140
0.91053033
0.91022919
0.90992798
0.90962670
0.90932536
0.90902394
0.90872245
0.90842089
0.90811926
0.90781757
0.90751580
0.90721396
0.90691206
0.90661008
0.90630804
0.90600593
0.90570374
0.90540149
0.90509917
0.90479678
0.90449432
0.90419179
0.90388919
0.90358652
0.90328378
0.90298097
0.90267810
0.90237515
0.90207214
0.90176906
0.90146590
0.90116268
0.90085939
0.90055603
0.90025260
0.89994911
0.89964554
0.89934191
0.89903820
0.89873443
0.89843059
0.89812668
0.89782270
0.89751865
0.89721454
0.89691035
0.89660610
0.89630178
0.89599739
0.89569293
0.89538840
0.89508381
0.89477914
0.89447441
0.89416961
0.89386474
0.89355980
0.89325480
0.89294972
0.89264458
0.89233937
0.89203409
0.89172874
0.89142332
0.89111784
0.89081229
0.89050667
0.89020098
0.88989522
0.88958940
0.88928351
0.88897755
0.88867152
0.88836542
0.88805926
0.88775303
0.88744673
0.88714036
0.88683392
0.88652742
0.88622085
0.88591421
0.88560750
0.88530073
0.88499389
0.88468698
0.88438000
0.88407296
0.88376585
0.88345867
0.88315142
0.88284411
0.88253672
0.88222927
0.88192176
0.88161417
0.88130652
0.88099880
0.88069102
0.88038316
0.88007524
0.87976726
0.87945920
0.87915108
0.87884289
0.87853463
0.87822631
0.87791792
0.87760946
0.87730094
0.87699234
0.87668369
0.87637496
0.87606617
0.87575731
0.87544838
0.87513939
0.87483033
0.87452120
0.87421201
0.87390275
0.87359342
0.87328403
0.87297457
0.87266504
0.87235545
0.87204579
0.87173606
0.87142627
0.87111641
0.87080648
0.87049649
0.87018643
0.86987630
0.86956611
0.86925585
0.86894553
0.86863513
0.86832468
0.86801415
0.86770356
0.86739291
0.86708218
0.86677140
0.86646054
0.86614962
0.86583863
0.86552758
0.86521646
0.86490527
0.86459402
0.86428271
0.86397132
0.86365987
0.86334836
0.86303678
0.86272513
0.86241342
0.86210164
0.86178980
0.86147789
0.86116591
0.86085387
0.86054176
0.86022959
0.85991735
0.85960504
0.85929267
0.85898024
0.85866774
0.85835517
0.85804254
0.85772984
0.85741708
0.85710425
0.85679136
0.85647840
0.85616537
0.85585228
0.85553913
0.85522591
0.85491262
0.85459927
0.85428585
0.85397237
0.85365883
0.85334522
0.85303154
0.85271780
0.85240399
0.85209012
0.85177618
0.85146218
0.85114811
0.85083398
0.85051978
0.85020552
0.84989119
0.84957680
0.84926234
0.84894782
0.84863324
0.84831859
0.84800387
0.84768909
0.84737424
0.84705933
0.84674436
0.84642932
0.84611422
0.84579905
0.84548382
0.84516852
0.84485316
0.84453773
0.84422224
0.84390668
0.84359106
0.84327538
0.84295963
0.84264382
0.84232794
0.84201200
0.84169599
0.84137992
0.84106379
0.84074759
0.84043133
0.84011500
0.83979861
0.83948216
0.83916564
0.83884905
0.83853241
0.83821569
0.83789892
0.83758208
0.83726518
0.83694821
0.83663118
0.83631408
0.83599692
0.83567970
0.83536241
0.83504506
0.83472765
0.83441017
0.83409263
0.83377502
0.83345735
0.83313962
0.83282182
0.83250396
0.83218604
0.83186805
0.83155000
0.83123189
0.83091371
0.83059547
0.83027716
0.82995880
0.82964036
0.82932187
0.82900331
0.82868469
0.82836600
0.82804725
0.82772844
0.82740957
0.82709063
0.82677163
0.82645256
0.82613343
0.82581424
0.82549499
0.82517567
0.82485629
0.82453685
0.82421734
0.82389777
0.82357814
0.82325844
0.82293869
0.82261886
0.82229898
0.82197903
0.82165902
0.82133895
0.82101881
0.82069862
0.82037836
0.82005803
0.81973764
0.81941719
0.81909668
0.81877611
0.81845547
0.81813477
0.81781401
0.81749318
0.81717229
0.81685134
0.81653033
0.81620926
0.81588812
0.81556692
0.81524566
0.81492433
0.81460294
0.81428149
0.81395998
0.81363841
0.81331677
0.81299507
0.81267331
0.81235148
0.81202960
0.81170765
0.81138564
0.81106357
0.81074143
0.81041924
0.81009698
0.80977466
0.80945227
0.80912983
0.80880732
0.80848475
0.80816212
0.80783943
0.80751668
0.80719386
0.80687098
0.80654804
0.80622504
0.80590198
0.80557885
0.80525566
0.80493241
0.80460910
0.80428573
0.80396230
0.80363880
0.80331524
0.80299162
0.80266794
0.80234420
0.80202040
0.80169653
0.80137260
0.80104861
0.80072456
0.80040045
0.80007628
0.79975205
0.79942775
0.79910339
0.79877897
0.79845450
0.79812995
0.79780535
0.79748069
0.79715596
0.79683118
0.79650633
0.79618142
0.79585645
0.79553142
0.79520633
0.79488118
0.79455596
0.79423069
0.79390535
0.79357995
0.79325450
0.79292898
0.79260340
0.79227776
0.79195205
0.79162629
0.79130047
0.79097458
0.79064864
0.79032263
0.78999656
0.78967044
0.78934425
0.78901800
0.78869169
0.78836532
0.78803888
0.78771239
0.78738584
0.78705923
0.78673255
0.78640582
0.78607902
0.78575217
0.78542525
0.78509827
0.78477124
0.78444414
0.78411698
0.78378976
0.78346248
0.78313515
0.78280775
0.78248029
0.78215277
0.78182519
0.78149754
0.78116984
0.78084208
0.78051426
0.78018638
0.77985844
0.77953043
0.77920237
0.77887425
0.77854607
0.77821783
0.77788952
0.77756116
0.77723274
0.77690425
0.77657571
0.77624711
0.77591845
0.77558972
0.77526094
0.77493210
0.77460320
0.77427424
0.77394521
0.77361613
0.77328699
0.77295779
0.77262853
0.77229921
0.77196983
0.77164039
0.77131089
0.77098133
0.77065171
0.77032203
0.76999229
0.76966249
0.76933264
0.76900272
0.76867274
0.76834271
0.76801261
0.76768245
0.76735224
0.76702197
0.76669163
0.76636124
0.76603079
0.76570028
0.76536971
0.76503908
0.76470839
0.76437764
0.76404683
0.76371596
0.76338504
0.76305405
0.76272301
0.76239190
0.76206074
0.76172952
0.76139823
0.76106689
0.76073549
0.76040404
0.76007252
0.75974094
0.75940931
0.75907761
0.75874586
0.75841404
0.75808217
0.75775024
0.75741825
0.75708620
0.75675410
0.75642193
0.75608971
0.75575742
0.75542508
0.75509268
0.75476022
0.75442770
0.75409512
0.75376249
0.75342979
0.75309704
0.75276423
0.75243136
0.75209843
0.75176544
0.75143239
0.75109929
0.75076612
0.75043290
0.75009962
0.74976628
0.74943289
0.74909943
0.74876592
0.74843234
0.74809871
0.74776502
0.74743127
0.74709747
0.74676360
0.74642968
0.74609570
0.74576166
0.74542756
0.74509341
0.74475919
0.74442492
0.74409059
0.74375620
0.74342175
0.74308725
0.74275269
0.74241806
0.74208339
0.74174865
0.74141385
0.74107900
0.74074409
0.74040912
0.74007409
0.73973901
0.73940386
0.73906866
0.73873340
0.73839809
0.73806271
0.73772728
0.73739179
0.73705624
0.73672063
0.73638497
0.73604925
0.73571347
0.73537763
0.73504174
0.73470578
0.73436977
0.73403370
0.73369758
0.73336140
0.73302516
0.73268886
0.73235250
0.73201609
0.73167962
0.73134309
0.73100650
0.73066986
0.73033316
0.72999640
0.72965958
0.72932271
0.72898578
0.72864879
0.72831174
0.72797464
0.72763748
0.72730026
0.72696299
0.72662565
0.72628826
0.72595082
0.72561331
0.72527575
0.72493813
0.72460046
0.72426272
0.72392493
0.72358708
0.72324918
0.72291122
0.72257320
0.72223512
0.72189699
0.72155880
0.72122055
0.72088225
0.72054389
0.72020547
0.71986699
0.71952846
0.71918987
0.71885123
0.71851252
0.71817376
0.71783495
0.71749607
0.71715714
0.71681816
0.71647911
0.71614001
0.71580085
0.71546164
0.71512237
0.71478304
0.71444365
0.71410421
0.71376471
0.71342516
0.71308555
0.71274588
0.71240615
0.71206637
0.71172653
0.71138664
0.71104669
0.71070668
0.71036662
0.71002650
0.70968632
0.70934608
0.70900579
0.70866545
0.70832504
0.70798458
0.70764407
0.70730350
0.70696287
0.70662218
0.70628144
0.70594064
0.70559979
0.70525888
0.70491791
0.70457689
0.70423581
0.70389467
0.70355348
0.70321223
0.70287093
0.70252957
0.70218815
0.70184668
0.70150515
0.70116356
0.70082192
0.70048022
0.70013847
0.69979666
0.69945479
0.69911287
0.69877089
0.69842886
0.69808677
0.69774462
0.69740242
0.69706016
0.69671785
0.69637548
0.69603305
0.69569057
0.69534803
0.69500544
0.69466279
0.69432009
0.69397732
0.69363451
0.69329164
0.69294871
0.69260572
0.69226268
0.69191959
0.69157644
0.69123323
0.69088997
0.69054665
0.69020327
0.68985984
0.68951636
0.68917282
0.68882922
0.68848557
0.68814186
0.68779809
0.68745428
0.68711040
0.68676647
0.68642248
0.68607844
0.68573435
0.68539019
0.68504599
0.68470172
0.68435740
0.68401303
0.68366860
0.68332412
0.68297957
0.68263498
0.68229033
0.68194562
0.68160086
0.68125604
