corrn_curve_linear
1.13895477
1.13870154
1.13844836
1.13819523
1.13794216
1.13768914
1.13743617
1.13718326
1.13693040
1.13667759
1.13642483
1.13617213
1.13591948
1.13566688
1.13541434
1.13516184
1.13490941
1.13465702
1.13440469
1.13415241
1.13390018
1.13364800
1.13339588
1.13314381
1.13289179
1.13263983
1.13238791
1.13213605
1.13188425
1.13163249
1.13138079
1.13112914
1.13087754
1.13062600
1.13037451
1.13012307
1.12987168
1.12962035
1.12936906
1.12911783
1.12886666
1.12861553
1.12836446
1.12811344
1.12786247
1.12761156
1.12736069
1.12710988
1.12685912
1.12660842
1.12635776
1.12610716
1.12585661
1.12560612
1.12535567
1.12510528
1.12485494
1.12460465
1.12435441
1.12410423
1.12385410
1.12360402
1.12335399
1.12310402
1.12285409
1.12260422
1.12235440
1.12210464
1.12185492
1.12160526
1.12135565
1.12110609
1.12085658
1.12060713
1.12035772
1.12010837
1.11985907
1.11960983
1.11936063
1.11911149
1.11886240
1.11861336
1.11836437
1.11811543
1.11786655
1.11761772
1.11736894
1.11712021
1.11687153
1.11662291
1.11637433
1.11612581
1.11587734
1.11562892
1.11538056
1.11513224
1.11488398
1.11463577
1.11438761
1.11413950
1.11389144
1.11364344
1.11339549
1.11314758
1.11289973
1.11265193
1.11240419
1.11215649
1.11190885
1.11166126
1.11141371
1.11116622
1.11091879
1.11067140
1.11042406
1.11017678
1.10992955
1.10968237
1.10943524
1.10918816
1.10894113
1.10869416
1.10844723
1.10820036
1.10795354
1.10770677
1.10746005
1.10721338
1.10696676
1.10672020
1.10647368
1.10622722
1.10598081
1.10573445
1.10548814
1.10524188
1.10499567
1.10474952
1.10450341
1.10425736
1.10401135
1.10376540
1.10351950
1.10327365
1.10302785
1.10278211
1.10253641
1.10229076
1.10204517
1.10179962
1.10155413
1.10130869
1.10106330
1.10081796
1.10057267
1.10032743
1.10008224
1.09983711
1.09959202
1.09934699
1.09910200
1.09885707
1.09861219
1.09836736
1.09812258
1.09787785
1.09763317
1.09738854
1.09714396
1.09689943
1.09665496
1.09641053
1.09616615
1.09592183
1.09567756
1.09543333
1.09518916
1.09494504
1.09470097
1.09445694
1.09421297
1.09396905
1.09372518
1.09348136
1.09323760
1.09299388
1.09275021
1.09250659
1.09226303
1.09201951
1.09177604
1.09153263
1.09128926
1.09104595
1.09080269
1.09055947
1.09031631
1.09007319
1.08983013
1.08958712
1.08934416
1.08910124
1.08885838
1.08861557
1.08837281
1.08813010
1.08788744
1.08764483
1.08740227
1.08715975
1.08691729
1.08667488
1.08643252
1.08619021
1.08594795
1.08570574
1.08546358
1.08522147
1.08497941
1.08473741
1.08449545
1.08425354
1.08401168
1.08376987
1.08352811
1.08328640
1.08304474
1.08280313
1.08256157
1.08232006
1.08207860
1.08183719
1.08159583
1.08135451
1.08111325
1.08087204
1.08063088
1.08038977
1.08014871
1.07990770
1.07966673
1.07942582
1.07918496
1.07894414
1.07870338
1.07846267
1.07822200
1.07798139
1.07774082
1.07750031
1.07725984
1.07701943
1.07677906
1.07653874
1.07629848
1.07605826
1.07581809
1.07557797
1.07533790
1.07509788
1.07485791
1.07461799
1.07437812
1.07413830
1.07389853
1.07365880
1.07341913
1.07317951
1.07293993
1.07270041
1.07246093
1.07222150
1.07198212
1.07174280
1.07150352
1.07126429
1.07102511
1.07078598
1.07054689
1.07030786
1.07006888
1.06982994
1.06959106
1.06935222
1.06911344
1.06887470
1.06863601
1.06839737
1.06815878
1.06792024
1.06768175
1.06744330
1.06720491
1.06696656
1.06672827
1.06649002
1.06625182
1.06601367
1.06577557
1.06553752
1.06529952
1.06506157
1.06482366
1.06458581
1.06434800
1.06411024
1.06387253
1.06363487
1.06339726
1.06315970
1.06292219
1.06268472
1.06244731
1.06220994
1.06197262
1.06173535
1.06149813
1.06126096
1.06102383
1.06078676
1.06054973
1.06031276
1.06007583
1.05983895
1.05960212
1.05936533
1.05912860
1.05889191
1.05865527
1.05841869
1.05818215
1.05794565
1.05770921
1.05747282
1.05723647
1.05700017
1.05676392
1.05652772
1.05629157
1.05605547
1.05581941
1.05558340
1.05534744
1.05511153
1.05487567
1.05463986
1.05440409
1.05416838
1.05393271
1.05369709
1.05346151
1.05322599
1.05299051
1.05275509
1.05251971
1.05228438
1.05204909
1.05181386
1.05157867
1.05134353
1.05110844
1.05087340
1.05063841
1.05040346
1.05016856
1.04993371
1.04969891
1.04946416
1.04922945
1.04899479
1.04876019
1.04852562
1.04829111
1.04805664
1.04782223
1.04758786
1.04735353
1.04711926
1.04688503
1.04665086
1.04641673
1.04618264
1.04594861
1.04571462
1.04548068
1.04524679
1.04501295
1.04477915
1.04454541
1.04431170
1.04407805
1.04384445
1.04361089
1.04337738
1.04314392
1.04291051
1.04267714
1.04244382
1.04221055
1.04197733
1.04174415
1.04151102
1.04127794
1.04104491
1.04081192
1.04057899
1.04034610
1.04011325
1.03988046
1.03964771
1.03941501
1.03918236
1.03894975
1.03871719
1.03848468
1.03825222
1.03801980
1.03778743
1.03755511
1.03732284
1.03709061
1.03685843
1.03662630
1.03639422
1.03616218
1.03593019
1.03569825
1.03546635
1.03523450
1.03500270
1.03477095
1.03453924
1.03430758
1.03407597
1.03384440
1.03361288
1.03338141
1.03314999
1.03291861
1.03268728
1.03245600
1.03222476
1.03199358
1.03176243
1.03153134
1.03130029
1.03106929
1.03083834
1.03060743
1.03037657
1.03014576
1.02991499
1.02968427
1.02945360
1.02922298
1.02899240
1.02876187
1.02853138
1.02830094
1.02807055
1.02784021
1.02760991
1.02737966
1.02714946
1.02691930
1.02668919
1.02645913
1.02622911
1.02599914
1.02576922
1.02553934
1.02530951
1.02507972
1.02484999
1.02462030
1.02439065
1.02416106
1.02393151
1.02370200
1.02347254
1.02324313
1.02301377
1.02278445
1.02255518
1.02232595
1.02209678
1.02186764
1.02163856
1.02140952
1.02118053
1.02095158
1.02072268
1.02049383
1.02026502
1.02003626
1.01980754
1.01957887
1.01935025
1.01912168
1.01889315
1.01866466
1.01843623
1.01820784
1.01797949
1.01775119
1.01752294
1.01729474
1.01706658
1.01683846
1.01661039
1.01638237
1.01615440
1.01592647
1.01569859
1.01547075
1.01524296
1.01501521
1.01478751
1.01455986
1.01433226
1.01410469
1.01387718
1.01364971
1.01342229
1.01319491
1.01296758
1.01274029
1.01251306
1.01228586
1.01205872
1.01183161
1.01160456
1.01137755
1.01115058
1.01092367
1.01069679
1.01046997
1.01024319
1.01001645
1.00978976
1.00956312
1.00933652
1.00910997
1.00888346
1.00865700
1.00843058
1.00820422
1.00797789
1.00775161
1.00752538
1.00729919
1.00707305
1.00684696
1.00662091
1.00639490
1.00616894
1.00594303
1.00571716
1.00549134
1.00526556
1.00503983
1.00481414
1.00458850
1.00436290
1.00413735
1.00391185
1.00368639
1.00346098
1.00323561
1.00301028
1.00278500
1.00255977
1.00233458
1.00210944
1.00188435
1.00165929
1.00143429
1.00120933
1.00098441
1.00075954
1.00053471
1.00030993
1.00008520
0.99986051
0.99963586
0.99941126
0.99918671
0.99896220
0.99873774
0.99851332
0.99828894
0.99806461
0.99784033
0.99761609
0.99739189
0.99716775
0.99694364
0.99671958
0.99649557
0.99627160
0.99604767
0.99582379
0.99559996
0.99537617
0.99515242
0.99492872
0.99470507
0.99448146
0.99425789
0.99403437
0.99381090
0.99358747
0.99336408
0.99314074
0.99291744
0.99269419
0.99247098
0.99224782
0.99202470
0.99180163
0.99157860
0.99135561
0.99113267
0.99090978
0.99068693
0.99046412
0.99024136
0.99001865
0.98979597
0.98957335
0.98935076
0.98912822
0.98890573
0.98868328
0.98846088
0.98823852
0.98801620
0.98779393
0.98757170
0.98734952
0.98712738
0.98690528
0.98668323
0.98646123
0.98623927
0.98601735
0.98579548
0.98557365
0.98535187
0.98513013
0.98490843
0.98468678
0.98446517
0.98424361
0.98402209
0.98380062
0.98357919
0.98335780
0.98313646
0.98291516
0.98269391
0.98247270
0.98225154
0.98203041
0.98180934
0.98158830
0.98136731
0.98114637
0.98092547
0.98070461
0.98048380
0.98026303
0.98004230
0.97982162
0.97960099
0.97938039
0.97915984
0.97893934
0.97871888
0.97849846
0.97827809
0.97805775
0.97783747
0.97761723
0.97739703
0.97717687
0.97695676
0.97673669
0.97651667
0.97629669
0.97607676
0.97585686
0.97563701
0.97541721
0.97519745
0.97497773
0.97475806
0.97453843
0.97431884
0.97409930
0.97387980
0.97366034
0.97344093
0.97322156
0.97300223
0.97278295
0.97256371
0.97234452
0.97212537
0.97190626
0.97168719
0.97146817
0.97124920
0.97103026
0.97081137
0.97059252
0.97037372
0.97015496
0.96993624
0.96971757
0.96949894
0.96928035
0.96906180
0.96884330
0.96862485
0.96840643
0.96818806
0.96796973
0.96775145
0.96753321
0.96731501
0.96709685
0.96687874
0.96666067
0.96644265
0.96622466
0.96600673
0.96578883
0.96557098
0.96535317
0.96513540
0.96491767
0.96469999
0.96448236
0.96426476
0.96404721
0.96382970
0.96361223
0.96339481
0.96317743
0.96296009
0.96274280
0.96252555
0.96230834
0.96209117
0.96187405
0.96165697
0.96143993
0.96122294
0.96100598
0.96078908
0.96057221
0.96035539
0.96013861
0.95992187
0.95970517
0.95948852
0.95927191
0.95905534
0.95883882
0.95862234
0.95840590
0.95818950
0.95797315
0.95775683
0.95754057
0.95732434
0.95710816
0.95689202
0.95667592
0.95645986
0.95624385
0.95602788
0.95581195
0.95559606
0.95538022
0.95516442
0.95494866
0.95473294
0.95451727
0.95430163
0.95408605
0.95387050
0.95365499
0.95343953
0.95322411
0.95300873
0.95279340
0.95257811
0.95236285
0.95214765
0.95193248
0.95171736
0.95150227
0.95128723
0.95107224
0.95085728
0.95064237
0.95042750
0.95021267
0.94999788
0.94978314
0.94956843
0.94935377
0.94913915
0.94892458
0.94871004
0.94849555
0.94828110
0.94806669
0.94785233
0.94763800
0.94742372
0.94720948
0.94699528
0.94678112
0.94656701
0.94635293
0.94613890
0.94592491
0.94571097
0.94549706
0.94528320
0.94506938
0.94485560
0.94464186
0.94442816
0.94421451
0.94400089
0.94378732
0.94357379
0.94336030
0.94314686
0.94293345
0.94272009
0.94250677
0.94229349
0.94208025
0.94186705
0.94165390
0.94144079
0.94122771
0.94101468
0.94080170
0.94058875
0.94037584
0.94016298
0.93995016
0.93973738
0.93952464
0.93931194
0.93909928
0.93888667
0.93867409
0.93846156
0.93824907
0.93803662
0.93782421
0.93761184
0.93739952
0.93718723
0.93697499
0.93676279
0.93655063
0.93633851
0.93612643
0.93591439
0.93570240
0.93549044
0.93527853
0.93506666
0.93485482
0.93464303
0.93443129
0.93421958
0.93400791
0.93379629
0.93358470
0.93337316
0.93316166
0.93295020
0.93273878
0.93252740
0.93231606
0.93210476
0.93189351
0.93168229
0.93147112
0.93125998
0.93104889
0.93083784
0.93062683
0.93041586
0.93020493
0.92999404
0.92978320
0.92957239
0.92936162
0.92915090
0.92894022
0.92872957
0.92851897
0.92830841
0.92809789
0.92788741
0.92767697
0.92746657
0.92725621
0.92704589
0.92683562
0.92662538
0.92641519
0.92620503
0.92599492
0.92578484
0.92557481
0.92536482
0.92515487
0.92494495
0.92473508
0.92452525
0.92431546
0.92410571
0.92389601
0.92368634
0.92347671
0.92326712
0.92305757
0.92284807
0.92263860
0.92242917
0.92221979
0.92201044
0.92180114
0.92159187
0.92138265
0.92117347
0.92096432
0.92075522
0.92054615
0.92033713
0.92012815
0.91991921
0.91971030
0.91950144
0.91929262
0.91908384
0.91887510
0.91866639
0.91845773
0.91824911
0.91804053
0.91783199
0.91762349
0.91741503
0.91720661
0.91699823
0.91678988
0.91658158
0.91637332
0.91616510
0.91595692
0.91574878
0.91554068
0.91533262
0.91512460
0.91491661
0.91470867
0.91450077
0.91429291
0.91408509
0.91387730
0.91366956
0.91346186
0.91325420
0.91304657
0.91283899
0.91263145
0.91242394
0.91221648
0.91200905
0.91180167
0.91159432
0.91138702
0.91117975
0.91097253
0.91076534
0.91055819
0.91035109
0.91014402
0.90993699
0.90973000
0.90952305
0.90931614
0.90910927
0.90890244
0.90869565
0.90848890
0.90828219
0.90807552
0.90786888
0.90766229
0.90745574
0.90724922
0.90704275
0.90683631
0.90662991
0.90642355
0.90621724
0.90601096
0.90580472
0.90559852
0.90539236
0.90518624
0.90498015
0.90477411
0.90456811
0.90436214
0.90415622
0.90395033
0.90374448
0.90353867
0.90333291
0.90312718
0.90292148
0.90271583
0.90251022
0.90230465
0.90209911
0.90189362
0.90168816
0.90148274
0.90127737
0.90107203
0.90086673
0.90066147
0.90045624
0.90025106
0.90004592
0.89984081
0.89963574
0.89943072
0.89922573
0.89902078
0.89881587
0.89861099
0.89840616
0.89820137
0.89799661
0.89779189
0.89758721
0.89738257
0.89717797
0.89697341
0.89676889
0.89656440
0.89635996
0.89615555
0.89595118
0.89574685
0.89554256
0.89533831
0.89513409
0.89492992
0.89472578
0.89452168
0.89431762
0.89411360
0.89390962
0.89370567
0.89350177
0.89329790
0.89309407
0.89289028
0.89268653
0.89248282
0.89227914
0.89207550
0.89187191
0.89166835
0.89146482
0.89126134
0.89105790
0.89085449
0.89065112
0.89044779
0.89024450
0.89004125
0.88983803
0.88963485
0.88943172
0.88922862
0.88902555
0.88882253
0.88861954
0.88841660
0.88821369
0.88801082
0.88780798
0.88760519
0.88740243
0.88719971
0.88699703
0.88679439
0.88659178
0.88638922
0.88618669
0.88598420
0.88578174
0.88557933
0.88537695
0.88517461
0.88497231
0.88477005
0.88456782
0.88436564
0.88416349
0.88396138
0.88375930
0.88355727
0.88335527
0.88315331
0.88295139
0.88274950
0.88254766
0.88234585
0.88214408
0.88194234
0.88174065
0.88153899
0.88133737
0.88113579
0.88093424
0.88073273
0.88053126
0.88032983
0.88012844
0.87992708
0.87972576
0.87952448
0.87932324
0.87912203
0.87892086
0.87871973
0.87851864
0.87831758
0.87811656
0.87791558
0.87771463
0.87751373
0.87731286
0.87711203
0.87691123
0.87671048
0.87650976
0.87630907
0.87610843
0.87590782
0.87570725
0.87550672
0.87530622
0.87510576
0.87490534
0.87470496
0.87450461
0.87430430
0.87410403
0.87390380
0.87370360
0.87350344
0.87330331
0.87310323
0.87290318
0.87270317
0.87250319
0.87230325
0.87210335
0.87190349
0.87170366
0.87150387
0.87130412
0.87110441
0.87090473
0.87070509
0.87050548
0.87030591
0.87010638
0.86990689
0.86970743
0.86950801
0.86930863
0.86910928
0.86890997
0.86871070
0.86851147
0.86831227
0.86811311
0.86791398
0.86771489
0.86751584
0.86731683
0.86711785
0.86691891
0.86672000
0.86652113
0.86632230
0.86612351
0.86592475
0.86572603
0.86552735
0.86532870
0.86513009
0.86493151
0.86473297
0.86453447
0.86433601
0.86413758
0.86393919
0.86374083
0.86354251
0.86334423
0.86314598
0.86294777
0.86274960
0.86255147
0.86235337
0.86215530
0.86195727
0.86175928
0.86156133
0.86136341
0.86116553
0.86096768
0.86076987
0.86057210
0.86037436
0.86017666
0.85997900
0.85978137
0.85958378
0.85938623
0.85918871
0.85899122
0.85879378
0.85859637
0.85839899
0.85820165
0.85800435
0.85780708
0.85760986
0.85741266
0.85721550
0.85701838
0.85682130
0.85662425
0.85642723
0.85623026
0.85603331
0.85583641
0.85563954
0.85544270
0.85524591
0.85504915
0.85485242
0.85465573
0.85445908
0.85426246
0.85406587
0.85386933
0.85367282
0.85347634
0.85327990
0.85308350
0.85288713
0.85269080
0.85249451
0.85229825
0.85210202
0.85190583
0.85170968
0.85151356
0.85131748
0.85112143
0.85092542
0.85072945
0.85053351
0.85033761
0.85014174
0.84994591
0.84975011
0.84955435
0.84935862
0.84916293
0.84896728
0.84877166
0.84857608
0.84838053
0.84818501
0.84798954
0.84779410
0.84759869
0.84740332
0.84720798
0.84701268
0.84681742
0.84662219
0.84642699
0.84623184
0.84603671
0.84584162
0.84564657
0.84545155
0.84525657
0.84506162
0.84486671
0.84467184
0.84447699
0.84428219
0.84408742
0.84389268
0.84369798
0.84350331
0.84330868
0.84311409
0.84291953
0.84272500
0.84253051
0.84233606
0.84214164
0.84194725
0.84175290
0.84155859
0.84136431
0.84117006
0.84097585
0.84078168
0.84058754
0.84039343
0.84019936
0.84000533
0.83981133
0.83961736
0.83942343
0.83922953
0.83903567
0.83884185
0.83864806
0.83845430
0.83826058
0.83806689
0.83787324
0.83767962
0.83748604
0.83729249
0.83709898
0.83690550
0.83671205
0.83651864
0.83632527
0.83613193
0.83593862
0.83574535
0.83555211
0.83535891
0.83516575
0.83497261
0.83477951
0.83458645
0.83439342
0.83420043
0.83400747
0.83381454
0.83362165
0.83342879
0.83323597
0.83304318
0.83285043
0.83265771
0.83246503
0.83227238
0.83207976
0.83188718
0.83169463
0.83150212
0.83130964
0.83111719
0.83092478
0.83073241
0.83054007
0.83034776
0.83015549
0.82996325
0.82977104
0.82957887
0.82938673
0.82919463
0.82900256
0.82881053
0.82861853
0.82842656
0.82823463
0.82804273
0.82785087
0.82765904
0.82746725
0.82727548
0.82708376
0.82689206
0.82670040
0.82650878
0.82631719
0.82612563
0.82593410
0.82574261
0.82555116
0.82535974
0.82516835
0.82497699
0.82478567
0.82459439
0.82440313
0.82421191
0.82402073
0.82382958
0.82363846
0.82344738
0.82325632
0.82306531
0.82287433
0.82268338
0.82249246
0.82230158
0.82211073
0.82191992
0.82172913
0.82153839
0.82134767
0.82115699
0.82096635
0.82077573
0.82058515
0.82039461
0.82020410
0.82001362
0.81982317
0.81963276
0.81944238
0.81925204
0.81906172
0.81887145
0.81868120
0.81849099
0.81830081
0.81811067
0.81792056
0.81773048
0.81754043
0.81735042
0.81716045
0.81697050
0.81678059
0.81659071
0.81640087
0.81621106
0.81602128
0.81583153
0.81564182
0.81545214
0.81526250
0.81507288
0.81488330
0.81469376
0.81450424
0.81431476
0.81412532
0.81393590
0.81374652
0.81355718
0.81336786
0.81317858
0.81298933
0.81280012
0.81261093
0.81242178
0.81223267
0.81204358
0.81185453
0.81166551
0.81147653
0.81128758
0.81109866
0.81090977
0.81072092
0.81053210
0.81034331
0.81015456
0.80996583
0.80977714
0.80958849
0.80939986
0.80921127
0.80902271
0.80883419
0.80864570
0.80845724
0.80826881
0.80808041
0.80789205
0.80770372
0.80751542
0.80732716
0.80713893
0.80695073
0.80676256
0.80657443
0.80638633
0.80619826
0.80601022
0.80582222
0.80563425
0.80544631
0.80525840
0.80507053
0.80488268
0.80469487
0.80450710
0.80431935
0.80413164
0.80394396
0.80375631
0.80356870
0.80338112
0.80319357
0.80300605
0.80281856
0.80263111
0.80244369
0.80225630
0.80206894
0.80188162
0.80169433
0.80150706
0.80131984
0.80113264
0.80094548
0.80075835
0.80057125
0.80038418
0.80019714
0.80001014
0.79982317
0.79963623
0.79944932
0.79926245
0.79907561
0.79888880
0.79870202
0.79851527
0.79832856
0.79814187
0.79795522
0.79776860
0.79758202
0.79739546
0.79720894
0.79702245
0.79683599
0.79664956
0.79646316
0.79627680
0.79609047
0.79590417
0.79571790
0.79553166
0.79534546
0.79515928
0.79497314
0.79478703
0.79460095
0.79441491
0.79422889
0.79404291
0.79385696
0.79367104
0.79348515
0.79329929
0.79311347
0.79292767
0.79274191
0.79255618
