corrn_curve_quadratic
1.14368372
1.14347250
1.14326113
1.14304962
1.14283797
1.14262618
1.14241424
1.14220217
1.14198996
1.14177761
1.14156512
1.14135249
1.14113972
1.14092681
1.14071376
1.14050058
1.14028725
1.14007378
1.13986018
1.13964643
1.13943255
1.13921853
1.13900437
1.13879007
1.13857563
1.13836106
1.13814634
1.13793149
1.13771650
1.13750138
1.13728611
1.13707071
1.13685517
1.13663949
1.13642368
1.13620773
1.13599164
1.13577541
1.13555905
1.13534255
1.13512591
1.13490914
1.13469223
1.13447518
1.13425800
1.13404068
1.13382323
1.13360564
1.13338791
1.13317005
1.13295205
1.13273392
1.13251565
1.13229725
1.13207871
1.13186003
1.13164122
1.13142228
1.13120320
1.13098399
1.13076464
1.13054515
1.13032553
1.13010578
1.12988590
1.12966588
1.12944572
1.12922543
1.12900501
1.12878445
1.12856376
1.12834294
1.12812198
1.12790089
1.12767967
1.12745831
1.12723682
1.12701520
1.12679344
1.12657155
1.12634953
1.12612738
1.12590509
1.12568268
1.12546012
1.12523744
1.12501463
1.12479168
1.12456860
1.12434539
1.12412205
1.12389857
1.12367497
1.12345123
1.12322737
1.12300337
1.12277924
1.12255498
1.12233058
1.12210606
1.12188141
1.12165662
1.12143171
1.12120666
1.12098149
1.12075618
1.12053075
1.12030518
1.12007949
1.11985366
1.11962771
1.11940162
1.11917541
1.11894907
1.11872260
1.11849599
1.11826926
1.11804240
1.11781541
1.11758830
1.11736105
1.11713368
1.11690617
1.11667854
1.11645078
1.11622289
1.11599488
1.11576673
1.11553846
1.11531006
1.11508153
1.11485288
1.11462409
1.11439518
1.11416615
1.11393698
1.11370769
1.11347827
1.11324872
1.11301905
1.11278925
1.11255932
1.11232927
1.11209909
1.11186878
1.11163835
1.11140779
1.11117711
1.11094630
1.11071536
1.11048430
1.11025311
1.11002180
1.10979036
1.10955879
1.10932710
1.10909529
1.10886335
1.10863128
1.10839909
1.10816677
1.10793433
1.10770177
1.10746908
1.10723627
1.10700333
1.10677027
1.10653708
1.10630377
1.10607033
1.10583677
1.10560309
1.10536928
1.10513535
1.10490130
1.10466712
1.10443282
1.10419840
1.10396385
1.10372918
1.10349439
1.10325948
1.10302444
1.10278928
1.10255399
1.10231859
1.10208306
1.10184741
1.10161163
1.10137574
1.10113972
1.10090358
1.10066732
1.10043094
1.10019443
1.09995781
1.09972106
1.09948419
1.09924720
1.09901009
1.09877285
1.09853550
1.09829803
1.09806043
1.09782271
1.09758488
1.09734692
1.09710884
1.09687064
1.09663232
1.09639389
1.09615533
1.09591665
1.09567785
1.09543893
1.09519989
1.09496073
1.09472146
1.09448206
1.09424254
1.09400291
1.09376315
1.09352328
1.09328329
1.09304317
1.09280294
1.09256259
1.09232213
1.09208154
1.09184083
1.09160001
1.09135907
1.09111801
1.09087683
1.09063554
1.09039412
1.09015259
1.08991094
1.08966917
1.08942729
1.08918529
1.08894317
1.08870093
1.08845858
1.08821611
1.08797352
1.08773081
1.08748799
1.08724505
1.08700200
1.08675883
1.08651554
1.08627214
1.08602861
1.08578498
1.08554122
1.08529736
1.08505337
1.08480927
1.08456505
1.08432072
1.08407627
1.08383171
1.08358703
1.08334224
1.08309733
1.08285230
1.08260716
1.08236191
1.08211654
1.08187106
1.08162546
1.08137974
1.08113392
1.08088797
1.08064192
1.08039575
1.08014946
1.07990306
1.07965655
1.07940992
1.07916318
1.07891633
1.07866936
1.07842228
1.07817508
1.07792777
1.07768035
1.07743282
1.07718517
1.07693741
1.07668953
1.07644155
1.07619345
1.07594524
1.07569691
1.07544847
1.07519992
1.07495126
1.07470249
1.07445360
1.07420460
1.07395549
1.07370627
1.07345694
1.07320749
1.07295793
1.07270826
1.07245848
1.07220859
1.07195859
1.07170847
1.07145825
1.07120791
1.07095746
1.07070691
1.07045624
1.07020546
1.06995457
1.06970357
1.06945245
1.06920123
1.06894990
1.06869846
1.06844691
1.06819524
1.06794347
1.06769159
1.06743960
1.06718750
1.06693529
1.06668297
1.06643054
1.06617800
1.06592535
1.06567259
1.06541973
1.06516675
1.06491367
1.06466047
1.06440717
1.06415376
1.06390024
1.06364661
1.06339288
1.06313903
1.06288508
1.06263102
1.06237685
1.06212257
1.06186819
1.06161370
1.06135910
1.06110439
1.06084957
1.06059465
1.06033962
1.06008448
1.05982924
1.05957389
1.05931843
1.05906286
1.05880719
1.05855141
1.05829553
1.05803953
1.05778343
1.05752723
1.05727092
1.05701450
1.05675797
1.05650134
1.05624461
1.05598776
1.05573081
1.05547376
1.05521660
1.05495933
1.05470196
1.05444449
1.05418690
1.05392922
1.05367142
1.05341352
1.05315552
1.05289741
1.05263920
1.05238088
1.05212246
1.05186393
1.05160530
1.05134657
1.05108773
1.05082878
1.05056973
1.05031058
1.05005132
1.04979196
1.04953249
1.04927292
1.04901325
1.04875348
1.04849360
1.04823361
1.04797352
1.04771333
1.04745304
1.04719264
1.04693214
1.04667154
1.04641083
1.04615003
1.04588911
1.04562810
1.04536698
1.04510576
1.04484444
1.04458302
1.04432149
1.04405986
1.04379813
1.04353630
1.04327436
1.04301232
1.04275018
1.04248794
1.04222560
1.04196316
1.04170061
1.04143797
1.04117522
1.04091237
1.04064942
1.04038637
1.04012321
1.03985996
1.03959660
1.03933315
1.03906959
1.03880594
1.03854218
1.03827832
1.03801436
1.03775030
1.03748614
1.03722189
1.03695753
1.03669307
1.03642851
1.03616385
1.03589909
1.03563423
1.03536927
1.03510422
1.03483906
1.03457380
1.03430845
1.03404299
1.03377744
1.03351179
1.03324603
1.03298018
1.03271423
1.03244819
1.03218204
1.03191579
1.03164945
1.03138300
1.03111646
1.03084982
1.03058309
1.03031625
1.03004932
1.02978228
1.02951515
1.02924793
1.02898060
1.02871318
1.02844566
1.02817804
1.02791032
1.02764251
1.02737460
1.02710659
1.02683849
1.02657029
1.02630199
1.02603359
1.02576510
1.02549651
1.02522782
1.02495904
1.02469016
1.02442119
1.02415212
1.02388295
1.02361368
1.02334432
1.02307487
1.02280531
1.02253566
1.02226592
1.02199608
1.02172614
1.02145611
1.02118599
1.02091576
1.02064545
1.02037503
1.02010452
1.01983392
1.01956322
1.01929243
1.01902154
1.01875055
1.01847948
1.01820830
1.01793704
1.01766567
1.01739422
1.01712266
1.01685102
1.01657928
1.01630745
1.01603552
1.01576349
1.01549138
1.01521917
1.01494686
1.01467447
1.01440198
1.01412939
1.01385671
1.01358394
1.01331107
1.01303812
1.01276506
1.01249192
1.01221868
1.01194535
1.01167193
1.01139841
1.01112480
1.01085110
1.01057730
1.01030341
1.01002943
1.00975536
1.00948120
1.00920694
1.00893259
1.00865815
1.00838361
1.00810899
1.00783427
1.00755946
1.00728456
1.00700957
1.00673448
1.00645930
1.00618404
1.00590868
1.00563323
1.00535769
1.00508205
1.00480633
1.00453051
1.00425461
1.00397861
1.00370252
1.00342635
1.00315008
1.00287372
1.00259727
1.00232073
1.00204409
1.00176737
1.00149056
1.00121366
1.00093667
1.00065958
1.00038241
1.00010515
0.99982780
0.99955036
0.99927283
0.99899520
0.99871749
0.99843969
0.99816180
0.99788383
0.99760576
0.99732760
0.99704935
0.99677102
0.99649260
0.99621408
0.99593548
0.99565679
0.99537801
0.99509914
0.99482018
0.99454114
0.99426201
0.99398278
0.99370347
0.99342408
0.99314459
0.99286501
0.99258535
0.99230560
0.99202576
0.99174584
0.99146582
0.99118572
0.99090553
0.99062525
0.99034489
0.99006444
0.98978390
0.98950327
0.98922256
0.98894176
0.98866087
0.98837990
0.98809884
0.98781769
0.98753646
0.98725513
0.98697373
0.98669223
0.98641065
0.98612898
0.98584723
0.98556539
0.98528346
0.98500145
0.98471935
0.98443717
0.98415490
0.98387254
0.98359010
0.98330757
0.98302496
0.98274226
0.98245948
0.98217661
0.98189365
0.98161061
0.98132748
0.98104427
0.98076098
0.98047760
0.98019413
0.97991058
0.97962694
0.97934322
0.97905942
0.97877553
0.97849155
0.97820749
0.97792335
0.97763912
0.97735481
0.97707041
0.97678593
0.97650137
0.97621672
0.97593199
0.97564717
0.97536227
0.97507729
0.97479222
0.97450707
0.97422183
0.97393651
0.97365111
0.97336563
0.97308006
0.97279441
0.97250867
0.97222285
0.97193695
0.97165097
0.97136490
0.97107875
0.97079252
0.97050620
0.97021980
0.96993332
0.96964676
0.96936012
0.96907339
0.96878658
0.96849969
0.96821271
0.96792565
0.96763852
0.96735129
0.96706399
0.96677661
0.96648914
0.96620159
0.96591396
0.96562625
0.96533846
0.96505059
0.96476263
0.96447459
0.96418647
0.96389828
0.96360999
0.96332163
0.96303319
0.96274467
0.96245606
0.96216738
0.96187861
0.96158976
0.96130084
0.96101183
0.96072274
0.96043357
0.96014432
0.95985499
0.95956558
0.95927609
0.95898652
0.95869687
0.95840714
0.95811733
0.95782744
0.95753747
0.95724742
0.95695730
0.95666709
0.95637680
0.95608643
0.95579598
0.95550546
0.95521485
0.95492417
0.95463340
0.95434256
0.95405164
0.95376064
0.95346956
0.95317840
0.95288716
0.95259584
0.95230445
0.95201298
0.95172142
0.95142979
0.95113808
0.95084630
0.95055443
0.95026249
0.94997047
0.94967837
0.94938619
0.94909393
0.94880160
0.94850919
0.94821670
0.94792413
0.94763148
0.94733876
0.94704596
0.94675308
0.94646013
0.94616710
0.94587399
0.94558080
0.94528754
0.94499419
0.94470078
0.94440728
0.94411371
0.94382006
0.94352633
0.94323253
0.94293865
0.94264470
0.94235067
0.94205656
0.94176237
0.94146811
0.94117377
0.94087936
0.94058487
0.94029030
0.93999566
0.93970094
0.93940615
0.93911128
0.93881633
0.93852131
0.93822621
0.93793104
0.93763579
0.93734046
0.93704506
0.93674959
0.93645404
0.93615841
0.93586271
0.93556694
0.93527108
0.93497516
0.93467916
0.93438308
0.93408693
0.93379070
0.93349440
0.93319803
0.93290158
0.93260505
0.93230846
0.93201178
0.93171503
0.93141821
0.93112132
0.93082435
0.93052730
0.93023018
0.92993299
0.92963572
0.92933838
0.92904097
0.92874348
0.92844592
0.92814828
0.92785057
0.92755279
0.92725493
0.92695700
0.92665900
0.92636092
0.92606277
0.92576455
0.92546625
0.92516788
0.92486944
0.92457093
0.92427234
0.92397368
0.92367494
0.92337614
0.92307726
0.92277831
0.92247928
0.92218018
0.92188102
0.92158177
0.92128246
0.92098307
0.92068361
0.92038408
0.92008448
0.91978481
0.91948506
0.91918524
0.91888535
0.91858539
0.91828535
0.91798525
0.91768507
0.91738482
0.91708450
0.91678411
0.91648364
0.91618311
0.91588250
0.91558182
0.91528107
0.91498025
0.91467936
0.91437840
0.91407737
0.91377626
0.91347509
0.91317384
0.91287253
0.91257114
0.91226968
0.91196815
0.91166655
0.91136489
0.91106315
0.91076134
0.91045946
0.91015751
0.90985548
0.90955339
0.90925123
0.90894900
0.90864670
0.90834433
0.90804189
0.90773938
0.90743680
0.90713415
0.90683143
0.90652864
0.90622578
0.90592285
0.90561986
0.90531679
0.90501365
0.90471045
0.90440717
0.90410383
0.90380042
0.90349694
0.90319339
0.90288977
0.90258608
0.90228232
0.90197849
0.90167460
0.90137064
0.90106660
0.90076250
0.90045834
0.90015410
0.89984979
0.89954542
0.89924098
0.89893647
0.89863189
0.89832724
0.89802253
0.89771774
0.89741289
0.89710797
0.89680299
0.89649793
0.89619281
0.89588762
0.89558236
0.89527704
0.89497165
0.89466619
0.89436066
0.89405507
0.89374940
0.89344368
0.89313788
0.89283202
0.89252609
0.89222009
0.89191402
0.89160789
0.89130170
0.89099543
0.89068910
0.89038270
0.89007624
0.88976970
0.88946311
0.88915644
0.88884971
0.88854291
0.88823605
0.88792912
0.88762212
0.88731506
0.88700793
0.88670074
0.88639348
0.88608615
0.88577876
0.88547130
0.88516377
0.88485618
0.88454853
0.88424081
0.88393302
0.88362517
0.88331725
0.88300927
0.88270122
0.88239310
0.88208492
0.88177668
0.88146837
0.88115999
0.88085155
0.88054305
0.88023448
0.87992584
0.87961714
0.87930838
0.87899955
0.87869065
0.87838169
0.87807267
0.87776358
0.87745443
0.87714521
0.87683593
0.87652658
0.87621717
0.87590770
0.87559816
0.87528856
0.87497889
0.87466916
0.87435936
0.87404950
0.87373958
0.87342959
0.87311954
0.87280943
0.87249925
0.87218901
0.87187870
0.87156833
0.87125790
0.87094740
0.87063684
0.87032622
0.87001553
0.86970478
0.86939397
0.86908310
0.86877216
0.86846115
0.86815009
0.86783896
0.86752777
0.86721652
0.86690520
0.86659382
0.86628238
0.86597087
0.86565931
0.86534768
0.86503598
0.86472423
0.86441241
0.86410053
0.86378859
0.86347658
0.86316452
0.86285239
0.86254020
0.86222794
0.86191563
0.86160325
0.86129081
0.86097831
0.86066575
0.86035312
0.86004044
0.85972769
0.85941488
0.85910201
0.85878907
0.85847608
0.85816302
0.85784991
0.85753673
0.85722349
0.85691019
0.85659682
0.85628340
0.85596991
0.85565637
0.85534276
0.85502909
0.85471537
0.85440158
0.85408773
0.85377381
0.85345984
0.85314581
0.85283172
0.85251756
0.85220335
0.85188907
0.85157474
0.85126034
0.85094588
0.85063137
0.85031679
0.85000215
0.84968746
0.84937270
0.84905788
0.84874300
0.84842807
0.84811307
0.84779801
0.84748290
0.84716772
0.84685248
0.84653718
0.84622183
0.84590641
0.84559094
0.84527540
0.84495981
0.84464416
0.84432844
0.84401267
0.84369684
0.84338095
0.84306500
0.84274899
0.84243292
0.84211679
0.84180061
0.84148436
0.84116806
0.84085169
0.84053527
0.84021879
0.83990225
0.83958565
0.83926899
0.83895228
0.83863550
0.83831867
0.83800178
0.83768483
0.83736782
0.83705076
0.83673363
0.83641645
0.83609921
0.83578191
0.83546455
0.83514714
0.83482966
0.83451213
0.83419454
0.83387690
0.83355919
0.83324143
0.83292361
0.83260573
0.83228779
0.83196980
0.83165175
0.83133364
0.83101547
0.83069725
0.83037897
0.83006063
0.82974224
0.82942378
0.82910527
0.82878671
0.82846808
0.82814940
0.82783066
0.82751187
0.82719301
0.82687410
0.82655514
0.82623612
0.82591704
0.82559790
0.82527871
0.82495946
0.82464015
0.82432079
0.82400137
0.82368189
0.82336236
0.82304277
0.82272312
0.82240342
0.82208367
0.82176385
0.82144398
0.82112405
0.82080407
0.82048403
0.82016394
0.81984379
0.81952358
0.81920332
0.81888300
0.81856263
0.81824220
0.81792171
0.81760117
0.81728058
0.81695993
0.81663922
0.81631845
0.81599764
0.81567676
0.81535583
0.81503485
0.81471381
0.81439271
0.81407156
0.81375036
0.81342910
0.81310778
0.81278641
0.81246498
0.81214350
0.81182197
0.81150038
0.81117873
0.81085703
0.81053528
0.81021347
0.80989160
0.80956969
0.80924771
0.80892569
0.80860360
0.80828147
0.80795928
0.80763703
0.80731473
0.80699238
0.80666997
0.80634751
0.80602499
0.80570242
0.80537979
0.80505711
0.80473438
0.80441159
0.80408875
0.80376586
0.80344291
0.80311991
0.80279685
0.80247374
0.80215058
0.80182736
0.80150409
0.80118077
0.80085739
0.80053396
0.80021048
0.79988694
0.79956335
0.79923970
0.79891600
0.79859225
0.79826845
0.79794459
0.79762068
0.79729672
0.79697270
0.79664863
0.79632451
0.79600033
0.79567611
0.79535183
0.79502749
0.79470311
0.79437867
0.79405417
0.79372963
0.79340503
0.79308038
0.79275568
0.79243093
0.79210612
0.79178126
0.79145635
0.79113138
0.79080637
0.79048130
0.79015618
0.78983100
0.78950578
0.78918050
0.78885517
0.78852979
0.78820436
0.78787887
0.78755334
0.78722775
0.78690211
0.78657641
0.78625067
0.78592487
0.78559903
0.78527313
0.78494718
0.78462117
0.78429512
0.78396902
0.78364286
0.78331665
0.78299039
0.78266408
0.78233772
0.78201131
0.78168484
0.78135833
0.78103176
0.78070514
0.78037847
0.78005175
0.77972498
0.77939816
0.77907129
0.77874436
0.77841739
0.77809036
0.77776329
0.77743616
0.77710898
0.77678176
0.77645448
0.77612715
0.77579977
0.77547234
0.77514486
0.77481733
0.77448975
0.77416211
0.77383443
0.77350670
0.77317892
0.77285109
0.77252320
0.77219527
0.77186729
0.77153925
0.77121117
0.77088304
0.77055486
0.77022662
0.76989834
0.76957001
0.76924162
0.76891319
0.76858471
0.76825618
0.76792760
0.76759897
0.76727029
0.76694156
0.76661278
0.76628395
0.76595507
0.76562614
0.76529717
0.76496814
0.76463907
0.76430994
0.76398077
0.76365154
0.76332227
0.76299295
0.76266358
0.76233416
0.76200469
0.76167517
0.76134561
0.76101599
0.76068633
0.76035661
0.76002685
0.75969704
0.75936718
0.75903728
0.75870732
0.75837731
0.75804726
0.75771716
0.75738701
0.75705681
0.75672656
0.75639626
0.75606592
0.75573553
0.75540509
0.75507460
0.75474406
0.75441347
0.75408284
0.75375216
0.75342143
0.75309065
0.75275982
0.75242895
0.75209803
0.75176706
0.75143604
0.75110497
0.75077386
0.75044270
0.75011149
0.74978023
0.74944893
0.74911757
0.74878617
0.74845473
0.74812323
0.74779169
0.74746010
0.74712846
0.74679678
0.74646504
0.74613326
0.74580144
0.74546956
0.74513764
0.74480567
0.74447366
0.74414159
0.74380948
0.74347733
0.74314512
0.74281287
0.74248057
0.74214823
0.74181584
0.74148340
0.74115091
0.74081838
0.74048580
0.74015317
0.73982050
0.73948778
0.73915502
0.73882220
0.73848934
0.73815644
0.73782349
0.73749049
0.73715744
0.73682435
0.73649121
0.73615803
0.73582480
0.73549152
0.73515820
0.73482483
0.73449141
0.73415795
0.73382444
0.73349089
0.73315729
0.73282364
0.73248995
0.73215621
0.73182243
0.73148859
0.73115472
0.73082080
0.73048683
0.73015282
0.72981876
0.72948465
0.72915050
0.72881631
0.72848206
0.72814778
0.72781344
0.72747906
0.72714464
0.72681017
0.72647566
0.72614110
0.72580649
0.72547184
0.72513714
0.72480240
0.72446761
0.72413278
0.72379790
0.72346298
0.72312801
0.72279300
0.72245794
0.72212284
0.72178769
0.72145250
0.72111726
0.72078198
0.72044665
0.72011128
0.71977586
0.71944040
0.71910489
0.71876934
0.71843375
0.71809811
0.71776242
0.71742669
0.71709092
0.71675510
0.71641923
0.71608332
0.71574737
0.71541137
0.71507533
0.71473925
0.71440312
0.71406694
0.71373072
0.71339446
0.71305815
0.71272180
0.71238541
0.71204897
0.71171248
0.71137595
0.71103938
0.71070277
0.71036611
0.71002940
0.70969266
0.70935586
0.70901903
0.70868215
0.70834523
0.70800826
0.70767125
0.70733419
0.70699709
0.70665995
0.70632277
0.70598554
0.70564827
0.70531095
0.70497359
0.70463619
0.70429874
0.70396125
0.70362372
0.70328614
0.70294852
0.70261086
0.70227315
0.70193540
0.70159761
0.70125977
0.70092189
0.70058397
0.70024600
0.69990799
0.69956994
0.69923184
0.69889371
0.69855553
0.69821730
0.69787903
0.69754072
0.69720237
0.69686398
0.69652554
0.69618706
0.69584853
0.69550997
0.69517136
0.69483270
0.69449401
0.69415527
0.69381649
0.69347767
0.69313880
0.69279990
0.69246095
0.69212195
0.69178292
0.69144384
0.69110472
0.69076556
0.69042636
0.69008711
0.68974782
0.68940849
0.68906912
0.68872970
0.68839024
0.68805074
0.68771120
0.68737162
0.68703199
0.68669232
0.68635261
0.68601286
0.68567307
0.68533323
0.68499335
0.68465343
0.68431347
0.68397347
0.68363342
0.68329334
0.68295321
0.68261304
0.68227283
0.68193257
