corrn_curve_linear
1.21597578
1.21558218
1.21518867
1.21479524
1.21440189
1.21400862
1.21361544
1.21322234
1.21282932
1.21243638
1.21204353
1.21165075
1.21125806
1.21086545
1.21047293
1.21008048
1.20968812
1.20929584
1.20890364
1.20851152
1.20811949
1.20772753
1.20733566
1.20694387
1.20655216
1.20616054
1.20576899
1.20537753
1.20498615
1.20459485
1.20420363
1.20381250
1.20342144
1.20303047
1.20263958
1.20224877
1.20185804
1.20146739
1.20107683
1.20068635
1.20029594
1.19990562
1.19951538
1.19912523
1.19873515
1.19834516
1.19795524
1.19756541
1.19717566
1.19678599
1.19639640
1.19600689
1.19561747
1.19522812
1.19483886
1.19444968
1.19406058
1.19367156
1.19328262
1.19289376
1.19250498
1.19211629
1.19172767
1.19133914
1.19095069
1.19056232
1.19017402
1.18978581
1.18939769
1.18900964
1.18862167
1.18823378
1.18784598
1.18745825
1.18707061
1.18668305
1.18629556
1.18590816
1.18552084
1.18513360
1.18474644
1.18435936
1.18397236
1.18358544
1.18319861
1.18281185
1.18242517
1.18203858
1.18165206
1.18126563
1.18087927
1.18049300
1.18010680
1.17972069
1.17933466
1.17894870
1.17856283
1.17817704
1.17779133
1.17740570
1.17702014
1.17663467
1.17624928
1.17586397
1.17547874
1.17509359
1.17470852
1.17432353
1.17393862
1.17355379
1.17316904
1.17278437
1.17239978
1.17201527
1.17163084
1.17124649
1.17086222
1.17047803
1.17009391
1.16970988
1.16932593
1.16894206
1.16855827
1.16817456
1.16779092
1.16740737
1.16702390
1.16664051
1.16625719
1.16587396
1.16549080
1.16510773
1.16472474
1.16434182
1.16395898
1.16357623
1.16319355
1.16281095
1.16242843
1.16204600
1.16166364
1.16128136
1.16089916
1.16051703
1.16013499
1.15975303
1.15937115
1.15898934
1.15860762
1.15822597
1.15784440
1.15746292
1.15708151
1.15670018
1.15631893
1.15593776
1.15555667
1.15517565
1.15479472
1.15441387
1.15403309
1.15365239
1.15327178
1.15289124
1.15251078
1.15213039
1.15175009
1.15136987
1.15098972
1.15060966
1.15022967
1.14984976
1.14946993
1.14909018
1.14871051
1.14833092
1.14795140
1.14757196
1.14719261
1.14681333
1.14643413
1.14605501
1.14567596
1.14529700
1.14491811
1.14453930
1.14416057
1.14378192
1.14340335
1.14302485
1.14264644
1.14226810
1.14188984
1.14151166
1.14113356
1.14075553
1.14037759
1.13999972
1.13962193
1.13924422
1.13886658
1.13848903
1.13811155
1.13773415
1.13735683
1.13697958
1.13660242
1.13622533
1.13584832
1.13547139
1.13509454
1.13471776
1.13434107
1.13396445
1.13358790
1.13321144
1.13283505
1.13245875
1.13208251
1.13170636
1.13133029
1.13095429
1.13057837
1.13020253
1.12982676
1.12945108
1.12907547
1.12869994
1.12832448
1.12794911
1.12757381
1.12719858
1.12682344
1.12644837
1.12607339
1.12569847
1.12532364
1.12494888
1.12457420
1.12419960
1.12382508
1.12345063
1.12307626
1.12270196
1.12232775
1.12195361
1.12157955
1.12120556
1.12083166
1.12045783
1.12008408
1.11971040
1.11933680
1.11896328
1.11858983
1.11821647
1.11784318
1.11746996
1.11709683
1.11672377
1.11635078
1.11597788
1.11560505
1.11523230
1.11485962
1.11448702
1.11411450
1.11374205
1.11336969
1.11299739
1.11262518
1.11225304
1.11188098
1.11150899
1.11113708
1.11076525
1.11039350
1.11002182
1.10965022
1.10927869
1.10890724
1.10853587
1.10816457
1.10779335
1.10742221
1.10705114
1.10668015
1.10630924
1.10593840
1.10556764
1.10519695
1.10482634
1.10445581
1.10408535
1.10371497
1.10334467
1.10297444
1.10260428
1.10223421
1.10186421
1.10149428
1.10112444
1.10075466
1.10038497
1.10001535
1.09964580
1.09927634
1.09890694
1.09853763
1.09816839
1.09779922
1.09743013
1.09706112
1.09669218
1.09632332
1.09595454
1.09558583
1.09521719
1.09484864
1.09448015
1.09411175
1.09374341
1.09337516
1.09300698
1.09263887
1.09227084
1.09190289
1.09153501
1.09116721
1.09079948
1.09043183
1.09006426
1.08969675
1.08932933
1.08896198
1.08859470
1.08822750
1.08786038
1.08749333
1.08712636
1.08675946
1.08639264
1.08602589
1.08565922
1.08529262
1.08492610
1.08455965
1.08419328
1.08382698
1.08346076
1.08309461
1.08272854
1.08236254
1.08199662
1.08163077
1.08126500
1.08089930
1.08053368
1.08016813
1.07980266
1.07943726
1.07907194
1.07870669
1.07834151
1.07797641
1.07761139
1.07724644
1.07688157
1.07651676
1.07615204
1.07578739
1.07542281
1.07505831
1.07469388
1.07432953
1.07396525
1.07360105
1.07323692
1.07287286
1.07250888
1.07214498
1.07178115
1.07141739
1.07105370
1.07069010
1.07032656
1.06996310
1.06959972
1.06923640
1.06887317
1.06851000
1.06814691
1.06778390
1.06742096
1.06705809
1.06669530
1.06633258
1.06596994
1.06560737
1.06524487
1.06488245
1.06452010
1.06415783
1.06379562
1.06343350
1.06307145
1.06270947
1.06234756
1.06198573
1.06162397
1.06126229
1.06090068
1.06053914
1.06017768
1.05981629
1.05945498
1.05909374
1.05873257
1.05837147
1.05801045
1.05764951
1.05728863
1.05692783
1.05656711
1.05620645
1.05584587
1.05548537
1.05512493
1.05476458
1.05440429
1.05404408
1.05368394
1.05332387
1.05296388
1.05260396
1.05224411
1.05188434
1.05152464
1.05116502
1.05080546
1.05044598
1.05008658
1.04972724
1.04936798
1.04900879
1.04864968
1.04829064
1.04793167
1.04757277
1.04721395
1.04685520
1.04649653
1.04613792
1.04577939
1.04542093
1.04506255
1.04470424
1.04434600
1.04398783
1.04362973
1.04327171
1.04291376
1.04255589
1.04219809
1.04184036
1.04148270
1.04112511
1.04076760
1.04041016
1.04005279
1.03969550
1.03933827
1.03898112
1.03862405
1.03826704
1.03791011
1.03755325
1.03719646
1.03683975
1.03648310
1.03612653
1.03577003
1.03541361
1.03505725
1.03470097
1.03434476
1.03398862
1.03363256
1.03327657
1.03292064
1.03256480
1.03220902
1.03185331
1.03149768
1.03114212
1.03078663
1.03043122
1.03007587
1.02972060
1.02936540
1.02901027
1.02865521
1.02830023
1.02794531
1.02759047
1.02723570
1.02688101
1.02652638
1.02617183
1.02581734
1.02546293
1.02510859
1.02475433
1.02440013
1.02404601
1.02369195
1.02333797
1.02298406
1.02263022
1.02227646
1.02192276
1.02156914
1.02121559
1.02086211
1.02050870
1.02015536
1.01980209
1.01944890
1.01909577
1.01874272
1.01838974
1.01803683
1.01768399
1.01733122
1.01697853
1.01662590
1.01627335
1.01592086
1.01556845
1.01521611
1.01486384
1.01451164
1.01415952
1.01380746
1.01345547
1.01310356
1.01275172
1.01239994
1.01204824
1.01169661
1.01134505
1.01099356
1.01064214
1.01029080
1.00993952
1.00958831
1.00923718
1.00888611
1.00853512
1.00818420
1.00783334
1.00748256
1.00713185
1.00678121
1.00643064
1.00608014
1.00572971
1.00537935
1.00502907
1.00467885
1.00432870
1.00397862
1.00362862
1.00327868
1.00292882
1.00257902
1.00222930
1.00187964
1.00153006
1.00118054
1.00083110
1.00048173
1.00013242
0.99978319
0.99943403
0.99908493
0.99873591
0.99838696
0.99803808
0.99768926
0.99734052
0.99699185
0.99664325
0.99629471
0.99594625
0.99559786
0.99524954
0.99490128
0.99455310
0.99420499
0.99385695
0.99350897
0.99316107
0.99281323
0.99246547
0.99211778
0.99177015
0.99142260
0.99107511
0.99072769
0.99038035
0.99003307
0.98968587
0.98933873
0.98899166
0.98864466
0.98829773
0.98795087
0.98760408
0.98725736
0.98691071
0.98656413
0.98621762
0.98587118
0.98552480
0.98517850
0.98483226
0.98448610
0.98414000
0.98379397
0.98344801
0.98310213
0.98275631
0.98241055
0.98206487
0.98171926
0.98137372
0.98102824
0.98068284
0.98033750
0.97999223
0.97964704
0.97930191
0.97895685
0.97861186
0.97826693
0.97792208
0.97757729
0.97723258
0.97688793
0.97654335
0.97619884
0.97585440
0.97551003
0.97516573
0.97482149
0.97447732
0.97413323
0.97378920
0.97344524
0.97310135
0.97275752
0.97241377
0.97207008
0.97172646
0.97138292
0.97103943
0.97069602
0.97035268
0.97000940
0.96966620
0.96932306
0.96897999
0.96863698
0.96829405
0.96795119
0.96760839
0.96726566
0.96692300
0.96658041
0.96623788
0.96589542
0.96555304
0.96521072
0.96486846
0.96452628
0.96418416
0.96384212
0.96350014
0.96315822
0.96281638
0.96247460
0.96213289
0.96179125
0.96144968
0.96110818
0.96076674
0.96042537
0.96008407
0.95974284
0.95940167
0.95906057
0.95871954
0.95837858
0.95803769
0.95769686
0.95735610
0.95701541
0.95667478
0.95633422
0.95599374
0.95565331
0.95531296
0.95497267
0.95463245
0.95429230
0.95395222
0.95361220
0.95327225
0.95293237
0.95259255
0.95225280
0.95191312
0.95157351
0.95123396
0.95089449
0.95055507
0.95021573
0.94987645
0.94953724
0.94919810
0.94885902
0.94852001
0.94818107
0.94784220
0.94750339
0.94716465
0.94682598
0.94648737
0.94614883
0.94581036
0.94547195
0.94513361
0.94479534
0.94445713
0.94411899
0.94378092
0.94344292
0.94310498
0.94276711
0.94242930
0.94209156
0.94175389
0.94141629
0.94107875
0.94074128
0.94040387
0.94006653
0.93972926
0.93939206
0.93905492
0.93871784
0.93838084
0.93804390
0.93770702
0.93737022
0.93703348
0.93669680
0.93636020
0.93602365
0.93568718
0.93535077
0.93501443
0.93467815
0.93434194
0.93400580
0.93366972
0.93333371
0.93299776
0.93266188
0.93232607
0.93199032
0.93165464
0.93131902
0.93098347
0.93064799
0.93031257
0.92997722
0.92964194
0.92930672
0.92897156
0.92863648
0.92830145
0.92796650
0.92763161
0.92729678
0.92696202
0.92662733
0.92629270
0.92595814
0.92562364
0.92528921
0.92495485
0.92462055
0.92428632
0.92395215
0.92361804
0.92328401
0.92295004
0.92261613
0.92228229
0.92194851
0.92161480
0.92128116
0.92094758
0.92061407
0.92028062
0.91994723
0.91961392
0.91928066
0.91894748
0.91861436
0.91828130
0.91794831
0.91761538
0.91728252
0.91694972
0.91661699
0.91628433
0.91595172
0.91561919
0.91528672
0.91495431
0.91462197
0.91428969
0.91395748
0.91362534
0.91329326
0.91296124
0.91262929
0.91229740
0.91196558
0.91163382
0.91130213
0.91097050
0.91063894
0.91030744
0.90997601
0.90964464
0.90931334
0.90898210
0.90865092
0.90831981
0.90798877
0.90765778
0.90732687
0.90699602
0.90666523
0.90633450
0.90600385
0.90567325
0.90534272
0.90501226
0.90468185
0.90435152
0.90402124
0.90369104
0.90336089
0.90303081
0.90270080
0.90237085
0.90204096
0.90171114
0.90138138
0.90105168
0.90072205
0.90039248
0.90006298
0.89973354
0.89940417
0.89907486
0.89874561
0.89841643
0.89808731
0.89775826
0.89742927
0.89710034
0.89677148
0.89644268
0.89611394
0.89578527
0.89545666
0.89512812
0.89479964
0.89447122
0.89414287
0.89381458
0.89348635
0.89315819
0.89283009
0.89250206
0.89217409
0.89184618
0.89151834
0.89119056
0.89086284
0.89053518
0.89020759
0.88988007
0.88955260
0.88922520
0.88889787
0.88857059
0.88824338
0.88791624
0.88758915
0.88726213
0.88693518
0.88660828
0.88628145
0.88595468
0.88562798
0.88530134
0.88497476
0.88464825
0.88432179
0.88399541
0.88366908
0.88334282
0.88301662
0.88269048
0.88236441
0.88203839
0.88171245
0.88138656
0.88106074
0.88073498
0.88040928
0.88008365
0.87975808
0.87943257
0.87910712
0.87878174
0.87845642
0.87813116
0.87780597
0.87748084
0.87715577
0.87683076
0.87650581
0.87618093
0.87585611
0.87553136
0.87520666
0.87488203
0.87455746
0.87423295
0.87390851
0.87358412
0.87325980
0.87293555
0.87261135
0.87228722
0.87196315
0.87163914
0.87131519
0.87099131
0.87066749
0.87034373
0.87002003
0.86969639
0.86937282
0.86904931
0.86872586
0.86840247
0.86807915
0.86775588
0.86743268
0.86710954
0.86678647
0.86646345
0.86614050
0.86581761
0.86549478
0.86517201
0.86484930
0.86452666
0.86420407
0.86388155
0.86355909
0.86323670
0.86291436
0.86259209
0.86226988
0.86194772
0.86162564
0.86130361
0.86098164
0.86065974
0.86033790
0.86001611
0.85969439
0.85937274
0.85905114
0.85872960
0.85840813
0.85808672
0.85776536
0.85744407
0.85712285
0.85680168
0.85648057
0.85615953
0.85583854
0.85551762
0.85519676
0.85487596
0.85455522
0.85423454
0.85391393
0.85359337
0.85327288
0.85295244
0.85263207
0.85231176
0.85199151
0.85167132
0.85135119
0.85103112
0.85071112
0.85039117
0.85007128
0.84975146
0.84943170
0.84911199
0.84879235
0.84847277
0.84815325
0.84783379
0.84751439
0.84719505
0.84687578
0.84655656
0.84623740
0.84591831
0.84559927
0.84528030
0.84496138
0.84464253
0.84432374
0.84400500
0.84368633
0.84336772
0.84304917
0.84273068
0.84241225
0.84209388
0.84177557
0.84145732
0.84113913
0.84082100
0.84050293
0.84018492
0.83986697
0.83954908
0.83923126
0.83891349
0.83859578
0.83827813
0.83796054
0.83764302
0.83732555
0.83700814
0.83669079
0.83637351
0.83605628
0.83573911
0.83542200
0.83510495
0.83478797
0.83447104
0.83415417
0.83383736
0.83352061
0.83320392
0.83288729
0.83257072
0.83225421
0.83193776
0.83162137
0.83130504
0.83098877
0.83067256
0.83035640
0.83004031
0.82972428
0.82940830
0.82909239
0.82877654
0.82846074
0.82814500
0.82782933
0.82751371
0.82719815
0.82688265
0.82656721
0.82625183
0.82593651
0.82562125
0.82530605
0.82499091
0.82467582
0.82436080
0.82404583
0.82373093
0.82341608
0.82310129
0.82278656
0.82247189
0.82215728
0.82184273
0.82152824
0.82121380
0.82089943
0.82058511
0.82027086
0.81995666
0.81964252
0.81932844
0.81901442
0.81870045
0.81838655
0.81807270
0.81775892
0.81744519
0.81713152
0.81681791
0.81650436
0.81619086
0.81587743
0.81556405
0.81525074
0.81493748
0.81462428
0.81431114
0.81399805
0.81368503
0.81337206
0.81305915
0.81274630
0.81243351
0.81212078
0.81180810
0.81149549
0.81118293
0.81087043
0.81055799
0.81024560
0.80993328
0.80962101
0.80930880
0.80899665
0.80868456
0.80837253
0.80806055
0.80774863
0.80743677
0.80712497
0.80681323
0.80650154
0.80618991
0.80587834
0.80556683
0.80525538
0.80494398
0.80463264
0.80432136
0.80401014
0.80369897
0.80338787
0.80307682
0.80276583
0.80245489
0.80214402
0.80183320
0.80152244
0.80121173
0.80090109
0.80059050
0.80027997
0.79996950
0.79965908
0.79934872
0.79903842
0.79872818
0.79841799
0.79810786
0.79779779
0.79748778
0.79717782
0.79686793
0.79655808
0.79624830
0.79593857
0.79562890
0.79531929
0.79500974
0.79470024
0.79439080
0.79408142
0.79377209
0.79346282
0.79315361
0.79284445
0.79253535
0.79222631
0.79191733
0.79160840
0.79129953
0.79099072
0.79068196
0.79037326
0.79006462
0.78975604
0.78944751
0.78913904
0.78883062
0.78852226
0.78821396
0.78790572
0.78759753
0.78728940
0.78698132
0.78667330
0.78636534
0.78605744
0.78574959
0.78544180
0.78513406
0.78482639
0.78451876
0.78421120
0.78390369
0.78359624
0.78328884
0.78298150
0.78267422
0.78236699
0.78205982
0.78175271
0.78144565
0.78113865
0.78083170
0.78052481
0.78021798
0.77991120
0.77960448
0.77929782
0.77899121
0.77868466
0.77837816
0.77807172
0.77776534
0.77745901
0.77715274
0.77684652
0.77654036
0.77623426
0.77592821
0.77562222
0.77531628
0.77501040
0.77470457
0.77439881
0.77409309
0.77378744
0.77348183
0.77317629
0.77287080
0.77256536
0.77225999
0.77195466
0.77164940
0.77134418
0.77103903
0.77073393
0.77042888
0.77012389
0.76981896
0.76951408
0.76920926
0.76890449
0.76859978
0.76829512
0.76799052
0.76768598
0.76738148
0.76707705
0.76677267
0.76646834
0.76616408
0.76585986
0.76555570
0.76525160
0.76494755
0.76464356
0.76433962
0.76403574
0.76373191
0.76342814
0.76312442
0.76282075
0.76251715
0.76221359
0.76191010
0.76160665
0.76130327
0.76099993
0.76069665
0.76039343
0.76009026
0.75978715
0.75948409
0.75918109
0.75887814
0.75857524
0.75827240
0.75796962
0.75766689
0.75736421
0.75706159
0.75675902
0.75645651
0.75615405
0.75585165
0.75554930
0.75524701
0.75494477
0.75464259
0.75434046
0.75403838
0.75373636
0.75343439
0.75313248
0.75283062
0.75252882
0.75222707
0.75192537
0.75162373
0.75132214
0.75102061
0.75071913
0.75041771
0.75011634
0.74981502
0.74951376
0.74921255
0.74891140
0.74861030
0.74830925
0.74800826
0.74770732
0.74740644
0.74710561
0.74680483
0.74650411
0.74620344
0.74590283
0.74560227
0.74530176
0.74500131
0.74470091
0.74440057
0.74410028
0.74380004
0.74349985
0.74319972
0.74289965
0.74259962
0.74229966
0.74199974
0.74169988
0.74140007
0.74110031
0.74080061
0.74050096
0.74020137
0.73990183
0.73960234
0.73930291
0.73900353
0.73870420
0.73840492
0.73810570
0.73780654
0.73750742
0.73720836
0.73690935
0.73661040
0.73631150
0.73601265
0.73571385
0.73541511
0.73511642
0.73481779
0.73451921
0.73422068
0.73392220
0.73362378
0.73332541
0.73302709
0.73272883
0.73243061
0.73213246
0.73183435
0.73153630
0.73123830
0.73094035
0.73064246
0.73034461
0.73004682
0.72974909
0.72945141
0.72915378
0.72885620
0.72855867
0.72826120
0.72796378
0.72766641
0.72736910
0.72707183
0.72677463
0.72647747
0.72618036
0.72588331
0.72558631
0.72528936
0.72499247
0.72469563
0.72439884
0.72410210
0.72380541
0.72350878
0.72321220
0.72291567
0.72261919
0.72232277
0.72202640
0.72173008
0.72143381
0.72113759
0.72084143
0.72054532
0.72024926
0.71995325
0.71965730
0.71936140
0.71906555
0.71876975
0.71847400
0.71817830
0.71788266
0.71758707
0.71729153
0.71699604
0.71670061
0.71640522
0.71610989
0.71581461
0.71551938
0.71522420
0.71492908
0.71463401
0.71433898
0.71404401
0.71374909
0.71345423
0.71315941
0.71286465
0.71256994
0.71227527
0.71198067
0.71168611
0.71139160
0.71109715
0.71080274
0.71050839
0.71021409
0.70991984
0.70962564
0.70933150
0.70903740
0.70874336
0.70844936
0.70815542
0.70786153
0.70756769
0.70727390
0.70698017
0.70668648
0.70639284
0.70609926
0.70580573
0.70551225
0.70521882
0.70492544
0.70463211
0.70433883
0.70404560
0.70375243
0.70345930
0.70316623
0.70287321
0.70258023
0.70228731
0.70199444
0.70170162
0.70140885
0.70111613
0.70082346
0.70053085
0.70023828
0.69994577
0.69965330
0.69936089
0.69906852
0.69877621
0.69848394
0.69819173
0.69789957
0.69760746
0.69731540
0.69702339
0.69673143
0.69643952
0.69614766
0.69585585
0.69556409
0.69527238
0.69498072
0.69468912
0.69439756
0.69410605
0.69381459
0.69352319
0.69323183
0.69294052
0.69264927
0.69235806
0.69206691
0.69177580
0.69148474
0.69119374
0.69090278
0.69061187
0.69032102
0.69003021
0.68973946
0.68944875
0.68915809
0.68886749
0.68857693
0.68828642
0.68799596
0.68770556
0.68741520
0.68712489
0.68683463
0.68654442
0.68625426
0.68596416
0.68567410
0.68538409
0.68509412
0.68480421
0.68451435
0.68422454
0.68393478
0.68364506
0.68335540
0.68306579
0.68277622
0.68248671
0.68219724
0.68190783
0.68161846
0.68132914
0.68103987
0.68075065
0.68046148
0.68017236
0.67988329
0.67959427
0.67930529
0.67901637
0.67872750
0.67843867
0.67814989
0.67786116
0.67757249
