corrn_curve_quartic
1.14692968
1.14670546
1.14648113
1.14625670
1.14603216
1.14580752
1.14558277
1.14535792
1.14513296
1.14490790
1.14468273
1.14445746
1.14423209
1.14400661
1.14378103
1.14355534
1.14332955
1.14310365
1.14287765
1.14265155
1.14242534
1.14219903
1.14197261
1.14174609
1.14151947
1.14129274
1.14106591
1.14083898
1.14061194
1.14038480
1.14015755
1.13993020
1.13970275
1.13947519
1.13924753
1.13901977
1.13879190
1.13856393
1.13833586
1.13810768
1.13787940
1.13765102
1.13742254
1.13719395
1.13696526
1.13673646
1.13650756
1.13627856
1.13604946
1.13582025
1.13559094
1.13536153
1.13513202
1.13490240
1.13467268
1.13444286
1.13421294
1.13398291
1.13375278
1.13352255
1.13329222
1.13306178
1.13283124
1.13260060
1.13236986
1.13213901
1.13190807
1.13167702
1.13144587
1.13121462
1.13098326
1.13075180
1.13052025
1.13028859
1.13005683
1.12982496
1.12959300
1.12936093
1.12912876
1.12889649
1.12866412
1.12843165
1.12819908
1.12796640
1.12773363
1.12750075
1.12726777
1.12703469
1.12680151
1.12656823
1.12633485
1.12610136
1.12586778
1.12563409
1.12540031
1.12516642
1.12493243
1.12469834
1.12446415
1.12422986
1.12399547
1.12376098
1.12352639
1.12329170
1.12305691
1.12282201
1.12258702
1.12235193
1.12211673
1.12188144
1.12164605
1.12141055
1.12117496
1.12093926
1.12070347
1.12046758
1.12023158
1.11999549
1.11975929
1.11952300
1.11928661
1.11905012
1.11881352
1.11857683
1.11834004
1.11810315
1.11786616
1.11762907
1.11739188
1.11715459
1.11691721
1.11667972
1.11644213
1.11620445
1.11596666
1.11572878
1.11549080
1.11525272
1.11501454
1.11477626
1.11453788
1.11429940
1.11406083
1.11382215
1.11358338
1.11334451
1.11310554
1.11286647
1.11262730
1.11238803
1.11214867
1.11190921
1.11166965
1.11142999
1.11119023
1.11095037
1.11071042
1.11047037
1.11023022
1.10998997
1.10974962
1.10950918
1.10926864
1.10902800
1.10878726
1.10854642
1.10830549
1.10806446
1.10782333
1.10758211
1.10734078
1.10709936
1.10685784
1.10661623
1.10637451
1.10613270
1.10589079
1.10564879
1.10540668
1.10516448
1.10492219
1.10467979
1.10443730
1.10419471
1.10395203
1.10370925
1.10346637
1.10322339
1.10298032
1.10273715
1.10249388
1.10225052
1.10200706
1.10176351
1.10151985
1.10127610
1.10103226
1.10078832
1.10054428
1.10030014
1.10005591
1.09981158
1.09956716
1.09932264
1.09907803
1.09883331
1.09858851
1.09834360
1.09809860
1.09785351
1.09760832
1.09736303
1.09711765
1.09687217
1.09662659
1.09638092
1.09613516
1.09588930
1.09564334
1.09539729
1.09515114
1.09490490
1.09465856
1.09441212
1.09416559
1.09391897
1.09367225
1.09342544
1.09317853
1.09293152
1.09268442
1.09243723
1.09218994
1.09194255
1.09169507
1.09144750
1.09119983
1.09095206
1.09070421
1.09045625
1.09020821
1.08996006
1.08971183
1.08946349
1.08921507
1.08896655
1.08871793
1.08846923
1.08822042
1.08797153
1.08772253
1.08747345
1.08722427
1.08697500
1.08672563
1.08647617
1.08622661
1.08597696
1.08572722
1.08547738
1.08522745
1.08497743
1.08472731
1.08447710
1.08422679
1.08397639
1.08372590
1.08347531
1.08322463
1.08297386
1.08272300
1.08247204
1.08222098
1.08196984
1.08171860
1.08146727
1.08121584
1.08096432
1.08071271
1.08046101
1.08020921
1.07995732
1.07970534
1.07945326
1.07920110
1.07894883
1.07869648
1.07844403
1.07819150
1.07793886
1.07768614
1.07743332
1.07718042
1.07692741
1.07667432
1.07642114
1.07616786
1.07591449
1.07566103
1.07540747
1.07515382
1.07490009
1.07464625
1.07439233
1.07413832
1.07388421
1.07363001
1.07337572
1.07312134
1.07286687
1.07261230
1.07235765
1.07210290
1.07184806
1.07159313
1.07133810
1.07108299
1.07082778
1.07057249
1.07031710
1.07006162
1.06980605
1.06955039
1.06929463
1.06903879
1.06878286
1.06852683
1.06827071
1.06801450
1.06775821
1.06750182
1.06724534
1.06698876
1.06673210
1.06647535
1.06621851
1.06596157
1.06570455
1.06544743
1.06519023
1.06493293
1.06467555
1.06441807
1.06416050
1.06390285
1.06364510
1.06338726
1.06312933
1.06287132
1.06261321
1.06235501
1.06209672
1.06183835
1.06157988
1.06132132
1.06106267
1.06080394
1.06054511
1.06028619
1.06002719
1.05976809
1.05950891
1.05924963
1.05899027
1.05873082
1.05847127
1.05821164
1.05795192
1.05769211
1.05743221
1.05717222
1.05691214
1.05665197
1.05639171
1.05613137
1.05587093
1.05561041
1.05534980
1.05508910
1.05482831
1.05456743
1.05430646
1.05404540
1.05378426
1.05352302
1.05326170
1.05300029
1.05273879
1.05247720
1.05221553
1.05195376
1.05169191
1.05142997
1.05116794
1.05090582
1.05064362
1.05038132
1.05011894
1.04985647
1.04959391
1.04933126
1.04906853
1.04880571
1.04854280
1.04827980
1.04801672
1.04775354
1.04749028
1.04722693
1.04696350
1.04669997
1.04643636
1.04617266
1.04590888
1.04564500
1.04538104
1.04511699
1.04485286
1.04458864
1.04432433
1.04405993
1.04379544
1.04353087
1.04326622
1.04300147
1.04273664
1.04247172
1.04220671
1.04194162
1.04167644
1.04141117
1.04114582
1.04088038
1.04061485
1.04034924
1.04008354
1.03981775
1.03955188
1.03928592
1.03901988
1.03875374
1.03848753
1.03822122
1.03795483
1.03768835
1.03742179
1.03715514
1.03688841
1.03662158
1.03635468
1.03608768
1.03582060
1.03555344
1.03528619
1.03501885
1.03475143
1.03448392
1.03421633
1.03394865
1.03368088
1.03341303
1.03314509
1.03287707
1.03260896
1.03234077
1.03207249
1.03180413
1.03153568
1.03126715
1.03099853
1.03072982
1.03046103
1.03019216
1.02992320
1.02965416
1.02938503
1.02911581
1.02884651
1.02857713
1.02830766
1.02803810
1.02776847
1.02749874
1.02722894
1.02695904
1.02668907
1.02641900
1.02614886
1.02587863
1.02560831
1.02533791
1.02506743
1.02479686
1.02452621
1.02425547
1.02398465
1.02371375
1.02344276
1.02317169
1.02290053
1.02262929
1.02235796
1.02208655
1.02181506
1.02154348
1.02127182
1.02100008
1.02072825
1.02045634
1.02018435
1.01991227
1.01964010
1.01936786
1.01909553
1.01882312
1.01855062
1.01827804
1.01800538
1.01773263
1.01745980
1.01718689
1.01691389
1.01664082
1.01636765
1.01609441
1.01582108
1.01554767
1.01527418
1.01500060
1.01472694
1.01445320
1.01417937
1.01390546
1.01363147
1.01335740
1.01308324
1.01280901
1.01253468
1.01226028
1.01198580
1.01171123
1.01143658
1.01116184
1.01088703
1.01061213
1.01033715
1.01006209
1.00978694
1.00951172
1.00923641
1.00896102
1.00868554
1.00840999
1.00813435
1.00785863
1.00758283
1.00730695
1.00703099
1.00675494
1.00647882
1.00620261
1.00592632
1.00564994
1.00537349
1.00509695
1.00482034
1.00454364
1.00426686
1.00399000
1.00371306
1.00343603
1.00315893
1.00288174
1.00260448
1.00232713
1.00204970
1.00177219
1.00149460
1.00121692
1.00093917
1.00066134
1.00038342
1.00010543
0.99982735
0.99954919
0.99927095
0.99899264
0.99871424
0.99843576
0.99815720
0.99787855
0.99759983
0.99732103
0.99704215
0.99676319
0.99648414
0.99620502
0.99592582
0.99564653
0.99536717
0.99508772
0.99480820
0.99452859
0.99424891
0.99396915
0.99368930
0.99340938
0.99312937
0.99284929
0.99256913
0.99228888
0.99200856
0.99172816
0.99144767
0.99116711
0.99088647
0.99060575
0.99032495
0.99004407
0.98976311
0.98948207
0.98920095
0.98891975
0.98863847
0.98835712
0.98807568
0.98779417
0.98751257
0.98723090
0.98694915
0.98666732
0.98638541
0.98610342
0.98582135
0.98553921
0.98525698
0.98497468
0.98469229
0.98440983
0.98412729
0.98384467
0.98356197
0.98327920
0.98299634
0.98271341
0.98243040
0.98214731
0.98186414
0.98158089
0.98129757
0.98101416
0.98073068
0.98044712
0.98016348
0.97987977
0.97959597
0.97931210
0.97902815
0.97874412
0.97846001
0.97817583
0.97789157
0.97760723
0.97732281
0.97703831
0.97675374
0.97646909
0.97618436
0.97589956
0.97561467
0.97532971
0.97504467
0.97475956
0.97447436
0.97418909
0.97390374
0.97361832
0.97333281
0.97304723
0.97276157
0.97247584
0.97219003
0.97190414
0.97161817
0.97133213
0.97104601
0.97075981
0.97047354
0.97018719
0.96990076
0.96961426
0.96932767
0.96904102
0.96875428
0.96846747
0.96818058
0.96789362
0.96760658
0.96731946
0.96703226
0.96674499
0.96645765
0.96617022
0.96588272
0.96559515
0.96530749
0.96501976
0.96473196
0.96444408
0.96415612
0.96386809
0.96357998
0.96329179
0.96300353
0.96271519
0.96242678
0.96213829
0.96184973
0.96156109
0.96127237
0.96098358
0.96069471
0.96040577
0.96011675
0.95982765
0.95953848
0.95924923
0.95895991
0.95867052
0.95838104
0.95809150
0.95780187
0.95751217
0.95722240
0.95693255
0.95664263
0.95635263
0.95606255
0.95577240
0.95548218
0.95519188
0.95490151
0.95461106
0.95432053
0.95402993
0.95373926
0.95344851
0.95315768
0.95286679
0.95257581
0.95228476
0.95199364
0.95170245
0.95141117
0.95111983
0.95082841
0.95053691
0.95024534
0.94995370
0.94966198
0.94937019
0.94907832
0.94878638
0.94849436
0.94820227
0.94791011
0.94761787
0.94732556
0.94703317
0.94674071
0.94644818
0.94615557
0.94586289
0.94557013
0.94527730
0.94498440
0.94469142
0.94439837
0.94410524
0.94381205
0.94351877
0.94322543
0.94293201
0.94263852
0.94234495
0.94205131
0.94175760
0.94146381
0.94116995
0.94087602
0.94058201
0.94028793
0.93999378
0.93969955
0.93940525
0.93911088
0.93881644
0.93852192
0.93822733
0.93793266
0.93763792
0.93734311
0.93704823
0.93675327
0.93645824
0.93616314
0.93586797
0.93557272
0.93527740
0.93498201
0.93468654
0.93439101
0.93409540
0.93379971
0.93350396
0.93320813
0.93291223
0.93261626
0.93232021
0.93202410
0.93172791
0.93143165
0.93113531
0.93083891
0.93054243
0.93024588
0.92994926
0.92965256
0.92935580
0.92905896
0.92876205
0.92846507
0.92816801
0.92787089
0.92757369
0.92727642
0.92697908
0.92668167
0.92638418
0.92608663
0.92578900
0.92549130
0.92519353
0.92489569
0.92459778
0.92429979
0.92400174
0.92370361
0.92340541
0.92310714
0.92280880
0.92251038
0.92221190
0.92191335
0.92161472
0.92131602
0.92101725
0.92071841
0.92041950
0.92012052
0.91982147
0.91952235
0.91922315
0.91892389
0.91862455
0.91832515
0.91802567
0.91772612
0.91742650
0.91712681
0.91682705
0.91652722
0.91622732
0.91592735
0.91562731
0.91532720
0.91502702
0.91472676
0.91442644
0.91412605
0.91382558
0.91352505
0.91322444
0.91292377
0.91262302
0.91232221
0.91202133
0.91172037
0.91141935
0.91111825
0.91081709
0.91051585
0.91021455
0.90991317
0.90961173
0.90931021
0.90900863
0.90870698
0.90840525
0.90810346
0.90780160
0.90749967
0.90719766
0.90689559
0.90659345
0.90629124
0.90598896
0.90568661
0.90538420
0.90508171
0.90477915
0.90447653
0.90417383
0.90387107
0.90356823
0.90326533
0.90296236
0.90265932
0.90235621
0.90205303
0.90174978
0.90144646
0.90114308
0.90083962
0.90053610
0.90023250
0.89992884
0.89962511
0.89932131
0.89901745
0.89871351
0.89840951
0.89810543
0.89780129
0.89749708
0.89719280
0.89688845
0.89658404
0.89627955
0.89597500
0.89567038
0.89536569
0.89506093
0.89475611
0.89445121
0.89414625
0.89384122
0.89353612
0.89323095
0.89292572
0.89262042
0.89231505
0.89200961
0.89170410
0.89139852
0.89109288
0.89078717
0.89048139
0.89017555
0.88986963
0.88956365
0.88925760
0.88895149
0.88864530
0.88833905
0.88803273
0.88772634
0.88741989
0.88711337
0.88680678
0.88650012
0.88619340
0.88588660
0.88557974
0.88527282
0.88496582
0.88465876
0.88435164
0.88404444
0.88373718
0.88342985
0.88312245
0.88281499
0.88250746
0.88219986
0.88189220
0.88158446
0.88127667
0.88096880
0.88066087
0.88035287
0.88004480
0.87973667
0.87942847
0.87912021
0.87881187
0.87850347
0.87819501
0.87788648
0.87757788
0.87726921
0.87696048
0.87665168
0.87634282
0.87603389
0.87572489
0.87541583
0.87510670
0.87479750
0.87448824
0.87417891
0.87386951
0.87356005
0.87325053
0.87294093
0.87263127
0.87232155
0.87201176
0.87170190
0.87139198
0.87108199
0.87077193
0.87046181
0.87015163
0.86984138
0.86953106
0.86922067
0.86891022
0.86859971
0.86828913
0.86797848
0.86766777
0.86735699
0.86704615
0.86673524
0.86642427
0.86611323
0.86580212
0.86549095
0.86517972
0.86486842
0.86455705
0.86424562
0.86393412
0.86362256
0.86331093
0.86299924
0.86268749
0.86237566
0.86206378
0.86175182
0.86143981
0.86112772
0.86081558
0.86050337
0.86019109
0.85987875
0.85956634
0.85925387
0.85894133
0.85862873
0.85831607
0.85800334
0.85769054
0.85737768
0.85706476
0.85675177
0.85643872
0.85612560
0.85581242
0.85549917
0.85518586
0.85487248
0.85455904
0.85424554
0.85393197
0.85361834
0.85330464
0.85299088
0.85267706
0.85236317
0.85204921
0.85173519
0.85142111
0.85110697
0.85079276
0.85047848
0.85016415
0.84984974
0.84953528
0.84922075
0.84890616
0.84859150
0.84827678
0.84796199
0.84764715
0.84733223
0.84701726
0.84670222
0.84638712
0.84607195
0.84575672
0.84544143
0.84512607
0.84481065
0.84449516
0.84417962
0.84386401
0.84354833
0.84323259
0.84291679
0.84260093
0.84228500
0.84196901
0.84165296
0.84133684
0.84102066
0.84070442
0.84038811
0.84007174
0.83975531
0.83943881
0.83912225
0.83880563
0.83848895
0.83817220
0.83785539
0.83753852
0.83722158
0.83690458
0.83658752
0.83627040
0.83595321
0.83563596
0.83531865
0.83500127
0.83468384
0.83436634
0.83404877
0.83373115
0.83341346
0.83309571
0.83277790
0.83246002
0.83214209
0.83182409
0.83150603
0.83118790
0.83086971
0.83055147
0.83023316
0.82991478
0.82959635
0.82927785
0.82895929
0.82864067
0.82832198
0.82800324
0.82768443
0.82736556
0.82704663
0.82672764
0.82640858
0.82608946
0.82577028
0.82545104
0.82513174
0.82481238
0.82449295
0.82417346
0.82385391
0.82353430
0.82321463
0.82289489
0.82257510
0.82225524
0.82193532
0.82161534
0.82129530
0.82097519
0.82065503
0.82033480
0.82001451
0.81969416
0.81937375
0.81905328
0.81873275
0.81841215
0.81809150
0.81777078
0.81745000
0.81712917
0.81680827
0.81648730
0.81616628
0.81584520
0.81552405
0.81520285
0.81488158
0.81456026
0.81423887
0.81391742
0.81359591
0.81327434
0.81295271
0.81263101
0.81230926
0.81198745
0.81166557
0.81134364
0.81102164
0.81069959
0.81037747
0.81005529
0.80973305
0.80941075
0.80908840
0.80876598
0.80844350
0.80812096
0.80779835
0.80747569
0.80715297
0.80683019
0.80650735
0.80618444
0.80586148
0.80553846
0.80521538
0.80489223
0.80456903
0.80424577
0.80392244
0.80359906
0.80327562
0.80295211
0.80262855
0.80230492
0.80198124
0.80165750
0.80133369
0.80100983
0.80068591
0.80036192
0.80003788
0.79971378
0.79938962
0.79906539
0.79874111
0.79841677
0.79809237
0.79776791
0.79744339
0.79711881
0.79679417
0.79646947
0.79614471
0.79581989
0.79549502
0.79517008
0.79484508
0.79452003
0.79419491
0.79386974
0.79354451
0.79321921
0.79289386
0.79256845
0.79224298
0.79191745
0.79159186
0.79126621
0.79094051
0.79061474
0.79028891
0.78996303
0.78963709
0.78931108
0.78898502
0.78865890
0.78833272
0.78800649
0.78768019
0.78735383
0.78702742
0.78670095
0.78637441
0.78604782
0.78572117
0.78539446
0.78506770
0.78474087
0.78441399
0.78408704
0.78376004
0.78343298
0.78310586
0.78277869
0.78245145
0.78212416
0.78179680
0.78146939
0.78114192
0.78081440
0.78048681
0.78015917
0.77983146
0.77950370
0.77917588
0.77884800
0.77852007
0.77819207
0.77786402
0.77753591
0.77720774
0.77687952
0.77655123
0.77622289
0.77589449
0.77556603
0.77523751
0.77490894
0.77458031
0.77425162
0.77392287
0.77359406
0.77326520
0.77293628
0.77260730
0.77227826
0.77194916
0.77162001
0.77129080
0.77096153
0.77063220
0.77030282
0.76997338
0.76964388
0.76931432
0.76898471
0.76865504
0.76832531
0.76799552
0.76766568
0.76733578
0.76700582
0.76667580
0.76634573
0.76601560
0.76568541
0.76535516
0.76502486
0.76469450
0.76436408
0.76403361
0.76370308
0.76337249
0.76304184
0.76271114
0.76238038
0.76204956
0.76171868
0.76138775
0.76105676
0.76072572
0.76039462
0.76006346
0.75973224
0.75940097
0.75906963
0.75873825
0.75840680
0.75807530
0.75774374
0.75741213
0.75708046
0.75674873
0.75641695
0.75608510
0.75575321
0.75542125
0.75508924
0.75475717
0.75442505
0.75409287
0.75376063
0.75342833
0.75309598
0.75276358
0.75243111
0.75209859
0.75176602
0.75143338
0.75110069
0.75076795
0.75043515
0.75010229
0.74976937
0.74943640
0.74910337
0.74877029
0.74843715
0.74810396
0.74777070
0.74743740
0.74710403
0.74677061
0.74643713
0.74610360
0.74577001
0.74543637
0.74510267
0.74476891
0.74443510
0.74410123
0.74376731
0.74343333
0.74309929
0.74276520
0.74243105
0.74209685
0.74176259
0.74142827
0.74109390
0.74075947
0.74042499
0.74009045
0.73975586
0.73942121
0.73908650
0.73875174
0.73841693
0.73808206
0.73774713
0.73741215
0.73707711
0.73674201
0.73640686
0.73607166
0.73573640
0.73540108
0.73506571
0.73473028
0.73439480
0.73405927
0.73372367
0.73338803
0.73305232
0.73271656
0.73238075
0.73204488
0.73170896
0.73137298
0.73103694
0.73070086
0.73036471
0.73002851
0.72969226
0.72935595
0.72901958
0.72868316
0.72834669
0.72801016
0.72767357
0.72733693
0.72700024
0.72666349
0.72632668
0.72598983
0.72565291
0.72531594
0.72497892
0.72464184
0.72430471
0.72396752
0.72363028
0.72329298
0.72295563
0.72261822
0.72228076
0.72194324
0.72160567
0.72126805
0.72093037
0.72059263
0.72025484
0.71991700
0.71957910
0.71924115
0.71890314
0.71856508
0.71822696
0.71788879
0.71755057
0.71721229
0.71687396
0.71653557
0.71619713
0.71585863
0.71552008
0.71518148
0.71484282
0.71450410
0.71416534
0.71382651
0.71348764
0.71314871
0.71280972
0.71247069
0.71213159
0.71179245
0.71145325
0.71111399
0.71077468
0.71043532
0.71009591
0.70975643
0.70941691
0.70907733
0.70873770
0.70839801
0.70805827
0.70771848
0.70737863
0.70703873
0.70669878
0.70635877
0.70601870
0.70567859
0.70533842
0.70499819
0.70465791
0.70431758
0.70397720
0.70363676
0.70329627
0.70295572
0.70261512
0.70227447
0.70193376
0.70159300
0.70125219
0.70091132
0.70057040
0.70022943
0.69988840
0.69954732
0.69920618
0.69886499
0.69852375
0.69818246
0.69784111
0.69749971
0.69715825
0.69681675
0.69647519
0.69613357
0.69579190
0.69545018
0.69510841
0.69476658
0.69442470
0.69408277
0.69374078
0.69339874
0.69305665
0.69271450
0.69237230
0.69203005
0.69168774
0.69134538
0.69100297
0.69066051
0.69031799
0.68997542
0.68963280
0.68929012
0.68894739
0.68860461
0.68826178
0.68791889
0.68757595
0.68723295
0.68688991
0.68654681
0.68620366
0.68586045
0.68551720
0.68517389
0.68483052
0.68448711
0.68414364
0.68380012
0.68345654
0.68311292
0.68276924
0.68242551
0.68208172
0.68173789
0.68139400
