corrn_curve_quadratic
1.08869604
1.08854125
1.08838646
1.08823169
1.08807692
1.08792216
1.08776742
1.08761268
1.08745794
1.08730322
1.08714851
1.08699380
1.08683911
1.08668442
1.08652974
1.08637507
1.08622041
1.08606575
1.08591111
1.08575647
1.08560185
1.08544723
1.08529262
1.08513802
1.08498343
1.08482885
1.08467427
1.08451971
1.08436515
1.08421060
1.08405606
1.08390153
1.08374701
1.08359250
1.08343800
1.08328350
1.08312902
1.08297454
1.08282007
1.08266561
1.08251116
1.08235672
1.08220229
1.08204786
1.08189345
1.08173904
1.08158465
1.08143026
1.08127588
1.08112151
1.08096715
1.08081279
1.08065845
1.08050411
1.08034979
1.08019547
1.08004116
1.07988686
1.07973257
1.07957829
1.07942402
1.07926976
1.07911550
1.07896126
1.07880702
1.07865279
1.07849857
1.07834436
1.07819016
1.07803597
1.07788179
1.07772762
1.07757345
1.07741929
1.07726515
1.07711101
1.07695688
1.07680276
1.07664865
1.07649455
1.07634046
1.07618637
1.07603230
1.07587824
1.07572418
1.07557013
1.07541609
1.07526206
1.07510805
1.07495403
1.07480003
1.07464604
1.07449206
1.07433808
1.07418412
1.07403016
1.07387621
1.07372228
1.07356835
1.07341443
1.07326052
1.07310661
1.07295272
1.07279884
1.07264497
1.07249110
1.07233724
1.07218340
1.07202956
1.07187573
1.07172191
1.07156810
1.07141430
1.07126051
1.07110673
1.07095296
1.07079919
1.07064544
1.07049169
1.07033796
1.07018423
1.07003051
1.06987680
1.06972310
1.06956941
1.06941573
1.06926206
1.06910840
1.06895475
1.06880110
1.06864747
1.06849384
1.06834023
1.06818662
1.06803302
1.06787944
1.06772586
1.06757229
1.06741873
1.06726518
1.06711164
1.06695810
1.06680458
1.06665107
1.06649756
1.06634407
1.06619058
1.06603711
1.06588364
1.06573018
1.06557673
1.06542330
1.06526987
1.06511645
1.06496304
1.06480963
1.06465624
1.06450286
1.06434949
1.06419612
1.06404277
1.06388942
1.06373609
1.06358276
1.06342945
1.06327614
1.06312284
1.06296955
1.06281627
1.06266300
1.06250974
1.06235649
1.06220325
1.06205002
1.06189680
1.06174359
1.06159038
1.06143719
1.06128400
1.06113083
1.06097766
1.06082451
1.06067136
1.06051823
1.06036510
1.06021198
1.06005887
1.05990577
1.05975268
1.05959960
1.05944653
1.05929347
1.05914042
1.05898738
1.05883435
1.05868132
1.05852831
1.05837531
1.05822231
1.05806933
1.05791635
1.05776339
1.05761043
1.05745749
1.05730455
1.05715162
1.05699871
1.05684580
1.05669290
1.05654001
1.05638713
1.05623426
1.05608140
1.05592855
1.05577571
1.05562288
1.05547006
1.05531725
1.05516445
1.05501166
1.05485887
1.05470610
1.05455334
1.05440058
1.05424784
1.05409511
1.05394238
1.05378967
1.05363696
1.05348426
1.05333158
1.05317890
1.05302624
1.05287358
1.05272093
1.05256829
1.05241567
1.05226305
1.05211044
1.05195784
1.05180525
1.05165267
1.05150010
1.05134755
1.05119500
1.05104246
1.05088992
1.05073740
1.05058489
1.05043239
1.05027990
1.05012742
1.04997495
1.04982249
1.04967003
1.04951759
1.04936516
1.04921274
1.04906032
1.04890792
1.04875553
1.04860314
1.04845077
1.04829840
1.04814605
1.04799371
1.04784137
1.04768905
1.04753673
1.04738443
1.04723213
1.04707985
1.04692757
1.04677530
1.04662305
1.04647080
1.04631857
1.04616634
1.04601412
1.04586192
1.04570972
1.04555753
1.04540536
1.04525319
1.04510103
1.04494889
1.04479675
1.04464462
1.04449250
1.04434040
1.04418830
1.04403621
1.04388413
1.04373207
1.04358001
1.04342796
1.04327592
1.04312389
1.04297188
1.04281987
1.04266787
1.04251588
1.04236390
1.04221193
1.04205998
1.04190803
1.04175609
1.04160416
1.04145224
1.04130033
1.04114844
1.04099655
1.04084467
1.04069280
1.04054094
1.04038909
1.04023726
1.04008543
1.03993361
1.03978180
1.03963000
1.03947821
1.03932643
1.03917467
1.03902291
1.03887116
1.03871942
1.03856769
1.03841598
1.03826427
1.03811257
1.03796088
1.03780920
1.03765754
1.03750588
1.03735423
1.03720259
1.03705097
1.03689935
1.03674774
1.03659615
1.03644456
1.03629298
1.03614141
1.03598986
1.03583831
1.03568677
1.03553525
1.03538373
1.03523223
1.03508073
1.03492924
1.03477777
1.03462630
1.03447485
1.03432340
1.03417197
1.03402054
1.03386913
1.03371772
1.03356633
1.03341494
1.03326357
1.03311221
1.03296085
1.03280951
1.03265818
1.03250685
1.03235554
1.03220424
1.03205294
1.03190166
1.03175039
1.03159913
1.03144788
1.03129663
1.03114540
1.03099418
1.03084297
1.03069177
1.03054058
1.03038940
1.03023823
1.03008707
1.02993592
1.02978478
1.02963365
1.02948253
1.02933143
1.02918033
1.02902924
1.02887816
1.02872710
1.02857604
1.02842499
1.02827395
1.02812293
1.02797191
1.02782091
1.02766991
1.02751893
1.02736795
1.02721699
1.02706603
1.02691509
1.02676416
1.02661323
1.02646232
1.02631142
1.02616053
1.02600964
1.02585877
1.02570791
1.02555706
1.02540622
1.02525539
1.02510457
1.02495376
1.02480296
1.02465217
1.02450139
1.02435063
1.02419987
1.02404912
1.02389838
1.02374766
1.02359694
1.02344624
1.02329554
1.02314486
1.02299418
1.02284352
1.02269286
1.02254222
1.02239159
1.02224096
1.02209035
1.02193975
1.02178916
1.02163858
1.02148801
1.02133745
1.02118690
1.02103636
1.02088583
1.02073531
1.02058480
1.02043431
1.02028382
1.02013334
1.01998288
1.01983242
1.01968198
1.01953154
1.01938112
1.01923070
1.01908030
1.01892991
1.01877953
1.01862915
1.01847879
1.01832844
1.01817810
1.01802777
1.01787745
1.01772714
1.01757685
1.01742656
1.01727628
1.01712601
1.01697576
1.01682551
1.01667528
1.01652505
1.01637484
1.01622463
1.01607444
1.01592426
1.01577409
1.01562393
1.01547377
1.01532363
1.01517350
1.01502339
1.01487328
1.01472318
1.01457309
1.01442301
1.01427295
1.01412289
1.01397285
1.01382281
1.01367279
1.01352277
1.01337277
1.01322278
1.01307280
1.01292283
1.01277287
1.01262292
1.01247298
1.01232305
1.01217313
1.01202322
1.01187333
1.01172344
1.01157356
1.01142370
1.01127384
1.01112400
1.01097417
1.01082435
1.01067453
1.01052473
1.01037494
1.01022516
1.01007539
1.00992563
1.00977589
1.00962615
1.00947642
1.00932671
1.00917700
1.00902731
1.00887762
1.00872795
1.00857829
1.00842864
1.00827899
1.00812936
1.00797974
1.00783013
1.00768054
1.00753095
1.00738137
1.00723181
1.00708225
1.00693270
1.00678317
1.00663365
1.00648413
1.00633463
1.00618514
1.00603566
1.00588619
1.00573673
1.00558728
1.00543785
1.00528842
1.00513900
1.00498960
1.00484020
1.00469082
1.00454145
1.00439208
1.00424273
1.00409339
1.00394406
1.00379474
1.00364543
1.00349614
1.00334685
1.00319757
1.00304831
1.00289905
1.00274981
1.00260058
1.00245135
1.00230214
1.00215294
1.00200375
1.00185457
1.00170540
1.00155625
1.00140710
1.00125796
1.00110884
1.00095972
1.00081062
1.00066153
1.00051245
1.00036338
1.00021432
1.00006527
0.99991623
0.99976720
0.99961818
0.99946918
0.99932018
0.99917120
0.99902222
0.99887326
0.99872431
0.99857537
0.99842644
0.99827752
0.99812861
0.99797972
0.99783083
0.99768195
0.99753309
0.99738424
0.99723539
0.99708656
0.99693774
0.99678893
0.99664013
0.99649134
0.99634256
0.99619380
0.99604504
0.99589630
0.99574756
0.99559884
0.99545013
0.99530143
0.99515274
0.99500406
0.99485539
0.99470673
0.99455808
0.99440945
0.99426082
0.99411221
0.99396361
0.99381502
0.99366643
0.99351786
0.99336931
0.99322076
0.99307222
0.99292369
0.99277518
0.99262667
0.99247818
0.99232970
0.99218123
0.99203277
0.99188432
0.99173588
0.99158745
0.99143903
0.99129063
0.99114223
0.99099385
0.99084548
0.99069712
0.99054877
0.99040043
0.99025210
0.99010378
0.98995547
0.98980718
0.98965889
0.98951062
0.98936236
0.98921411
0.98906587
0.98891764
0.98876942
0.98862121
0.98847301
0.98832483
0.98817665
0.98802849
0.98788034
0.98773220
0.98758407
0.98743595
0.98728784
0.98713974
0.98699166
0.98684358
0.98669552
0.98654747
0.98639942
0.98625139
0.98610337
0.98595536
0.98580737
0.98565938
0.98551141
0.98536344
0.98521549
0.98506755
0.98491961
0.98477169
0.98462379
0.98447589
0.98432800
0.98418013
0.98403226
0.98388441
0.98373657
0.98358873
0.98344091
0.98329311
0.98314531
0.98299752
0.98284975
0.98270198
0.98255423
0.98240649
0.98225875
0.98211103
0.98196332
0.98181563
0.98166794
0.98152027
0.98137260
0.98122495
0.98107731
0.98092967
0.98078205
0.98063445
0.98048685
0.98033926
0.98019169
0.98004412
0.97989657
0.97974903
0.97960150
0.97945398
0.97930647
0.97915897
0.97901149
0.97886401
0.97871655
0.97856910
0.97842166
0.97827423
0.97812681
0.97797940
0.97783200
0.97768462
0.97753724
0.97738988
0.97724253
0.97709519
0.97694786
0.97680054
0.97665324
0.97650594
0.97635866
0.97621138
0.97606412
0.97591687
0.97576963
0.97562240
0.97547518
0.97532798
0.97518078
0.97503360
0.97488643
0.97473927
0.97459212
0.97444498
0.97429785
0.97415074
0.97400363
0.97385654
0.97370946
0.97356239
0.97341533
0.97326828
0.97312124
0.97297421
0.97282720
0.97268020
0.97253320
0.97238622
0.97223925
0.97209229
0.97194535
0.97179841
0.97165149
0.97150457
0.97135767
0.97121078
0.97106390
0.97091703
0.97077018
0.97062333
0.97047650
0.97032967
0.97018286
0.97003606
0.96988927
0.96974250
0.96959573
0.96944897
0.96930223
0.96915550
0.96900878
0.96886207
0.96871537
0.96856868
0.96842201
0.96827534
0.96812869
0.96798205
0.96783542
0.96768880
0.96754219
0.96739559
0.96724901
0.96710243
0.96695587
0.96680932
0.96666278
0.96651625
0.96636973
0.96622323
0.96607673
0.96593025
0.96578378
0.96563732
0.96549087
0.96534443
0.96519800
0.96505159
0.96490519
0.96475879
0.96461241
0.96446604
0.96431968
0.96417334
0.96402700
0.96388068
0.96373437
0.96358806
0.96344177
0.96329550
0.96314923
0.96300297
0.96285673
0.96271050
0.96256428
0.96241807
0.96227187
0.96212568
0.96197950
0.96183334
0.96168719
0.96154104
0.96139491
0.96124880
0.96110269
0.96095659
0.96081051
0.96066443
0.96051837
0.96037232
0.96022628
0.96008026
0.95993424
0.95978824
0.95964224
0.95949626
0.95935029
0.95920433
0.95905838
0.95891245
0.95876652
0.95862061
0.95847471
0.95832882
0.95818294
0.95803707
0.95789122
0.95774537
0.95759954
0.95745372
0.95730791
0.95716211
0.95701632
0.95687055
0.95672478
0.95657903
0.95643329
0.95628756
0.95614184
0.95599614
0.95585044
0.95570476
0.95555908
0.95541342
0.95526777
0.95512214
0.95497651
0.95483090
0.95468529
0.95453970
0.95439412
0.95424855
0.95410299
0.95395745
0.95381191
0.95366639
0.95352088
0.95337538
0.95322989
0.95308442
0.95293895
0.95279350
0.95264805
0.95250262
0.95235720
0.95221180
0.95206640
0.95192102
0.95177564
0.95163028
0.95148493
0.95133959
0.95119427
0.95104895
0.95090365
0.95075835
0.95061307
0.95046780
0.95032255
0.95017730
0.95003207
0.94988684
0.94974163
0.94959643
0.94945124
0.94930607
0.94916090
0.94901575
0.94887061
0.94872547
0.94858036
0.94843525
0.94829015
0.94814507
0.94800000
0.94785493
0.94770988
0.94756485
0.94741982
0.94727480
0.94712980
0.94698481
0.94683983
0.94669486
0.94654990
0.94640496
0.94626003
0.94611510
0.94597019
0.94582529
0.94568041
0.94553553
0.94539067
0.94524581
0.94510097
0.94495614
0.94481133
0.94466652
0.94452172
0.94437694
0.94423217
0.94408741
0.94394266
0.94379793
0.94365320
0.94350849
0.94336379
0.94321910
0.94307442
0.94292975
0.94278510
0.94264045
0.94249582
0.94235120
0.94220659
0.94206199
0.94191741
0.94177283
0.94162827
0.94148372
0.94133918
0.94119466
0.94105014
0.94090564
0.94076114
0.94061666
0.94047219
0.94032774
0.94018329
0.94003886
0.93989444
0.93975003
0.93960563
0.93946124
0.93931686
0.93917250
0.93902815
0.93888381
0.93873948
0.93859516
0.93845085
0.93830656
0.93816228
0.93801801
0.93787375
0.93772950
0.93758526
0.93744104
0.93729683
0.93715263
0.93700844
0.93686426
0.93672010
0.93657594
0.93643180
0.93628767
0.93614355
0.93599944
0.93585535
0.93571127
0.93556719
0.93542313
0.93527908
0.93513505
0.93499102
0.93484701
0.93470301
0.93455902
0.93441504
0.93427107
0.93412712
0.93398317
0.93383924
0.93369532
0.93355142
0.93340752
0.93326363
0.93311976
0.93297590
0.93283205
0.93268821
0.93254439
0.93240057
0.93225677
0.93211298
0.93196920
0.93182543
0.93168168
0.93153793
0.93139420
0.93125048
0.93110677
0.93096308
0.93081939
0.93067572
0.93053206
0.93038841
0.93024477
0.93010114
0.92995753
0.92981392
0.92967033
0.92952675
0.92938319
0.92923963
0.92909609
0.92895255
0.92880903
0.92866552
0.92852203
0.92837854
0.92823507
0.92809161
0.92794816
0.92780472
0.92766129
0.92751788
0.92737447
0.92723108
0.92708770
0.92694434
0.92680098
0.92665764
0.92651430
0.92637098
0.92622768
0.92608438
0.92594109
0.92579782
0.92565456
0.92551131
0.92536807
0.92522485
0.92508163
0.92493843
0.92479524
0.92465206
0.92450889
0.92436574
0.92422259
0.92407946
0.92393634
0.92379323
0.92365014
0.92350705
0.92336398
0.92322092
0.92307787
0.92293483
0.92279181
0.92264879
0.92250579
0.92236280
0.92221982
0.92207686
0.92193390
0.92179096
0.92164803
0.92150511
0.92136220
0.92121931
0.92107643
0.92093355
0.92079069
0.92064785
0.92050501
0.92036218
0.92021937
0.92007657
0.91993378
0.91979101
0.91964824
0.91950549
0.91936275
0.91922002
0.91907730
0.91893459
0.91879190
0.91864922
0.91850655
0.91836389
0.91822124
0.91807861
0.91793598
0.91779337
0.91765077
0.91750818
0.91736561
0.91722305
0.91708049
0.91693795
0.91679543
0.91665291
0.91651041
0.91636791
0.91622543
0.91608296
0.91594051
0.91579806
0.91565563
0.91551321
0.91537080
0.91522840
0.91508601
0.91494364
0.91480128
0.91465893
0.91451659
0.91437426
0.91423195
0.91408965
0.91394736
0.91380508
0.91366281
0.91352056
0.91337831
0.91323608
0.91309386
0.91295166
0.91280946
0.91266728
0.91252510
0.91238294
0.91224080
0.91209866
0.91195654
0.91181442
0.91167232
0.91153024
0.91138816
0.91124609
0.91110404
0.91096200
0.91081997
0.91067796
0.91053595
0.91039396
0.91025198
0.91011001
0.90996805
0.90982610
0.90968417
0.90954225
0.90940034
0.90925844
0.90911656
0.90897468
0.90883282
0.90869097
0.90854913
0.90840730
0.90826549
0.90812369
0.90798190
0.90784012
0.90769835
0.90755660
0.90741485
0.90727312
0.90713141
0.90698970
0.90684800
0.90670632
0.90656465
0.90642299
0.90628134
0.90613971
0.90599808
0.90585647
0.90571487
0.90557329
0.90543171
0.90529015
0.90514859
0.90500705
0.90486553
0.90472401
0.90458251
0.90444102
0.90429954
0.90415807
0.90401661
0.90387517
0.90373373
0.90359231
0.90345091
0.90330951
0.90316813
0.90302675
0.90288539
0.90274404
0.90260271
0.90246138
0.90232007
0.90217877
0.90203748
0.90189621
0.90175494
0.90161369
0.90147245
0.90133122
0.90119000
0.90104880
0.90090760
0.90076642
0.90062525
0.90048410
0.90034295
0.90020182
0.90006070
0.89991959
0.89977849
0.89963741
0.89949633
0.89935527
0.89921422
0.89907319
0.89893216
0.89879115
0.89865015
0.89850916
0.89836818
0.89822722
0.89808626
0.89794532
0.89780439
0.89766348
0.89752257
0.89738168
0.89724080
0.89709993
0.89695907
0.89681823
0.89667739
0.89653657
0.89639576
0.89625497
0.89611418
0.89597341
0.89583265
0.89569190
0.89555116
0.89541043
0.89526972
0.89512902
0.89498833
0.89484765
0.89470699
0.89456634
0.89442570
0.89428507
0.89414445
0.89400384
0.89386325
0.89372267
0.89358210
0.89344155
0.89330100
0.89316047
0.89301995
0.89287944
0.89273894
0.89259846
0.89245798
0.89231752
0.89217707
0.89203664
0.89189621
0.89175580
0.89161540
0.89147501
0.89133464
0.89119427
0.89105392
0.89091358
0.89077325
0.89063293
0.89049263
0.89035234
0.89021206
0.89007179
0.88993153
0.88979129
0.88965106
0.88951084
0.88937063
0.88923043
0.88909025
0.88895008
0.88880992
0.88866977
0.88852963
0.88838951
0.88824940
0.88810930
0.88796921
0.88782914
0.88768907
0.88754902
0.88740898
0.88726896
0.88712894
0.88698894
0.88684895
0.88670897
0.88656900
0.88642905
0.88628910
0.88614917
0.88600925
0.88586935
0.88572945
0.88558957
0.88544970
0.88530984
0.88517000
0.88503016
0.88489034
0.88475053
0.88461073
0.88447095
0.88433117
0.88419141
0.88405166
0.88391192
0.88377220
0.88363248
0.88349278
0.88335309
0.88321342
0.88307375
0.88293410
0.88279446
0.88265483
0.88251521
0.88237561
0.88223601
0.88209643
0.88195686
0.88181731
0.88167776
0.88153823
0.88139871
0.88125920
0.88111971
0.88098022
0.88084075
0.88070129
0.88056184
0.88042241
0.88028298
0.88014357
0.88000417
0.87986478
0.87972541
0.87958605
0.87944670
0.87930736
0.87916803
0.87902871
0.87888941
0.87875012
0.87861084
0.87847158
0.87833232
0.87819308
0.87805385
0.87791463
0.87777543
0.87763623
0.87749705
0.87735788
0.87721872
0.87707958
0.87694045
0.87680132
0.87666222
0.87652312
0.87638403
0.87624496
0.87610590
0.87596685
0.87582782
0.87568879
0.87554978
0.87541078
0.87527179
0.87513282
0.87499385
0.87485490
0.87471596
0.87457703
0.87443812
0.87429921
0.87416032
0.87402144
0.87388258
0.87374372
0.87360488
0.87346605
0.87332723
0.87318843
0.87304963
0.87291085
0.87277208
0.87263332
0.87249458
0.87235584
0.87221712
0.87207841
0.87193971
0.87180103
0.87166236
0.87152370
0.87138505
0.87124641
0.87110779
0.87096917
0.87083057
0.87069199
0.87055341
0.87041485
0.87027629
0.87013776
0.86999923
0.86986071
0.86972221
0.86958372
0.86944524
0.86930677
0.86916832
0.86902988
0.86889145
0.86875303
0.86861462
0.86847623
0.86833785
0.86819948
0.86806112
0.86792277
0.86778444
0.86764612
0.86750781
0.86736951
0.86723123
0.86709296
0.86695470
0.86681645
0.86667821
0.86653999
0.86640178
0.86626358
0.86612539
0.86598721
0.86584905
0.86571090
0.86557276
0.86543463
0.86529652
0.86515842
0.86502033
0.86488225
0.86474418
0.86460613
0.86446809
0.86433006
0.86419204
0.86405403
0.86391604
0.86377806
0.86364009
0.86350214
0.86336419
0.86322626
0.86308834
0.86295043
0.86281253
0.86267465
0.86253678
0.86239892
0.86226107
0.86212324
0.86198542
0.86184760
0.86170981
0.86157202
0.86143425
0.86129648
0.86115873
0.86102100
0.86088327
0.86074556
0.86060785
0.86047017
0.86033249
0.86019482
0.86005717
0.85991953
0.85978190
0.85964429
0.85950668
0.85936909
0.85923151
0.85909394
0.85895639
0.85881885
0.85868131
0.85854380
0.85840629
0.85826879
0.85813131
0.85799384
0.85785638
0.85771894
0.85758150
0.85744408
0.85730667
0.85716928
0.85703189
0.85689452
0.85675716
0.85661981
0.85648247
0.85634515
0.85620784
0.85607054
0.85593325
0.85579598
0.85565871
0.85552146
0.85538422
0.85524700
0.85510978
0.85497258
0.85483539
0.85469821
0.85456105
