corrn_curve_quartic
1.22243708
1.22163690
1.22083878
1.22004271
1.21924871
1.21845675
1.21766684
1.21687898
1.21609315
1.21530937
1.21452761
1.21374789
1.21297019
1.21219451
1.21142085
1.21064920
1.20987957
1.20911194
1.20834632
1.20758269
1.20682106
1.20606143
1.20530378
1.20454812
1.20379444
1.20304273
1.20229300
1.20154525
1.20079945
1.20005563
1.19931376
1.19857384
1.19783588
1.19709987
1.19636581
1.19563368
1.19490349
1.19417524
1.19344892
1.19272452
1.19200205
1.19128150
1.19056287
1.18984615
1.18913133
1.18841843
1.18770742
1.18699832
1.18629110
1.18558578
1.18488235
1.18418080
1.18348114
1.18278335
1.18208743
1.18139339
1.18070121
1.18001089
1.17932244
1.17863584
1.17795109
1.17726819
1.17658714
1.17590793
1.17523056
1.17455502
1.17388131
1.17320944
1.17253938
1.17187115
1.17120474
1.17054014
1.16987735
1.16921637
1.16855719
1.16789981
1.16724423
1.16659045
1.16593845
1.16528824
1.16463981
1.16399316
1.16334829
1.16270519
1.16206386
1.16142430
1.16078650
1.16015046
1.15951617
1.15888364
1.15825285
1.15762382
1.15699652
1.15637096
1.15574714
1.15512505
1.15450468
1.15388605
1.15326913
1.15265393
1.15204045
1.15142868
1.15081862
1.15021026
1.14960361
1.14899865
1.14839539
1.14779382
1.14719394
1.14659574
1.14599923
1.14540439
1.14481123
1.14421974
1.14362992
1.14304176
1.14245526
1.14187043
1.14128724
1.14070571
1.14012583
1.13954760
1.13897100
1.13839604
1.13782272
1.13725104
1.13668098
1.13611254
1.13554573
1.13498054
1.13441696
1.13385499
1.13329464
1.13273589
1.13217874
1.13162319
1.13106924
1.13051688
1.12996612
1.12941693
1.12886934
1.12832332
1.12777887
1.12723601
1.12669471
1.12615498
1.12561681
1.12508021
1.12454516
1.12401166
1.12347972
1.12294933
1.12242048
1.12189317
1.12136740
1.12084316
1.12032046
1.11979929
1.11927964
1.11876152
1.11824491
1.11772982
1.11721624
1.11670418
1.11619362
1.11568456
1.11517701
1.11467095
1.11416639
1.11366332
1.11316173
1.11266163
1.11216302
1.11166588
1.11117021
1.11067602
1.11018330
1.10969205
1.10920226
1.10871393
1.10822705
1.10774163
1.10725766
1.10677514
1.10629406
1.10581442
1.10533623
1.10485947
1.10438414
1.10391024
1.10343776
1.10296671
1.10249708
1.10202887
1.10156207
1.10109668
1.10063270
1.10017012
1.09970895
1.09924917
1.09879079
1.09833381
1.09787821
1.09742400
1.09697117
1.09651973
1.09606966
1.09562097
1.09517365
1.09472769
1.09428311
1.09383988
1.09339802
1.09295751
1.09251836
1.09208055
1.09164410
1.09120899
1.09077522
1.09034279
1.08991170
1.08948194
1.08905351
1.08862640
1.08820062
1.08777617
1.08735303
1.08693120
1.08651069
1.08609149
1.08567359
1.08525700
1.08484171
1.08442771
1.08401501
1.08360361
1.08319349
1.08278466
1.08237711
1.08197084
1.08156585
1.08116213
1.08075968
1.08035851
1.07995859
1.07955995
1.07916256
1.07876643
1.07837155
1.07797793
1.07758555
1.07719442
1.07680453
1.07641588
1.07602847
1.07564229
1.07525735
1.07487363
1.07449114
1.07410987
1.07372982
1.07335099
1.07297337
1.07259697
1.07222177
1.07184778
1.07147499
1.07110341
1.07073302
1.07036382
1.06999582
1.06962900
1.06926337
1.06889893
1.06853566
1.06817358
1.06781266
1.06745293
1.06709436
1.06673695
1.06638071
1.06602563
1.06567171
1.06531895
1.06496734
1.06461688
1.06426756
1.06391939
1.06357237
1.06322648
1.06288172
1.06253810
1.06219562
1.06185426
1.06151402
1.06117491
1.06083692
1.06050004
1.06016428
1.05982963
1.05949609
1.05916366
1.05883233
1.05850210
1.05817297
1.05784493
1.05751799
1.05719213
1.05686737
1.05654369
1.05622109
1.05589957
1.05557912
1.05525975
1.05494145
1.05462422
1.05430806
1.05399296
1.05367892
1.05336594
1.05305401
1.05274314
1.05243331
1.05212453
1.05181680
1.05151011
1.05120446
1.05089984
1.05059626
1.05029371
1.04999219
1.04969170
1.04939223
1.04909378
1.04879634
1.04849993
1.04820452
1.04791013
1.04761675
1.04732437
1.04703299
1.04674261
1.04645323
1.04616485
1.04587746
1.04559105
1.04530564
1.04502121
1.04473776
1.04445529
1.04417379
1.04389327
1.04361373
1.04333515
1.04305754
1.04278089
1.04250520
1.04223047
1.04195670
1.04168388
1.04141201
1.04114110
1.04087112
1.04060210
1.04033401
1.04006686
1.03980064
1.03953536
1.03927102
1.03900759
1.03874510
1.03848353
1.03822288
1.03796314
1.03770433
1.03744642
1.03718943
1.03693335
1.03667817
1.03642389
1.03617052
1.03591804
1.03566646
1.03541577
1.03516598
1.03491707
1.03466905
1.03442191
1.03417565
1.03393027
1.03368577
1.03344214
1.03319938
1.03295749
1.03271647
1.03247631
1.03223701
1.03199857
1.03176098
1.03152425
1.03128838
1.03105335
1.03081916
1.03058583
1.03035333
1.03012167
1.02989085
1.02966087
1.02943171
1.02920339
1.02897589
1.02874922
1.02852337
1.02829834
1.02807413
1.02785074
1.02762815
1.02740638
1.02718542
1.02696526
1.02674590
1.02652735
1.02630959
1.02609263
1.02587646
1.02566109
1.02544650
1.02523270
1.02501969
1.02480746
1.02459600
1.02438533
1.02417543
1.02396630
1.02375794
1.02355035
1.02334352
1.02313746
1.02293216
1.02272762
1.02252383
1.02232080
1.02211852
1.02191698
1.02171620
1.02151616
1.02131686
1.02111830
1.02092048
1.02072339
1.02052704
1.02033142
1.02013653
1.01994236
1.01974891
1.01955619
1.01936419
1.01917290
1.01898233
1.01879247
1.01860332
1.01841488
1.01822714
1.01804011
1.01785378
1.01766814
1.01748321
1.01729896
1.01711541
1.01693255
1.01675037
1.01656889
1.01638808
1.01620795
1.01602850
1.01584973
1.01567164
1.01549421
1.01531745
1.01514136
1.01496594
1.01479117
1.01461707
1.01444363
1.01427084
1.01409871
1.01392723
1.01375639
1.01358621
1.01341667
1.01324777
1.01307951
1.01291189
1.01274491
1.01257856
1.01241284
1.01224775
1.01208329
1.01191945
1.01175624
1.01159365
1.01143167
1.01127032
1.01110957
1.01094944
1.01078992
1.01063101
1.01047270
1.01031499
1.01015789
1.01000139
1.00984548
1.00969017
1.00953544
1.00938131
1.00922777
1.00907482
1.00892245
1.00877066
1.00861945
1.00846881
1.00831876
1.00816927
1.00802036
1.00787202
1.00772424
1.00757703
1.00743038
1.00728429
1.00713876
1.00699379
1.00684937
1.00670550
1.00656218
1.00641941
1.00627719
1.00613551
1.00599437
1.00585377
1.00571371
1.00557418
1.00543519
1.00529673
1.00515880
1.00502139
1.00488451
1.00474815
1.00461232
1.00447700
1.00434220
1.00420791
1.00407414
1.00394087
1.00380812
1.00367587
1.00354412
1.00341288
1.00328214
1.00315189
1.00302214
1.00289289
1.00276413
1.00263585
1.00250807
1.00238077
1.00225396
1.00212762
1.00200177
1.00187639
1.00175149
1.00162707
1.00150311
1.00137963
1.00125661
1.00113406
1.00101198
1.00089035
1.00076918
1.00064848
1.00052822
1.00040842
1.00028908
1.00017018
1.00005173
0.99993373
0.99981616
0.99969905
0.99958237
0.99946613
0.99935032
0.99923495
0.99912001
0.99900550
0.99889142
0.99877776
0.99866453
0.99855172
0.99843933
0.99832736
0.99821580
0.99810466
0.99799393
0.99788361
0.99777370
0.99766419
0.99755509
0.99744640
0.99733810
0.99723020
0.99712270
0.99701559
0.99690888
0.99680256
0.99669662
0.99659107
0.99648591
0.99638113
0.99627674
0.99617272
0.99606908
0.99596581
0.99586292
0.99576040
0.99565825
0.99555647
0.99545506
0.99535400
0.99525331
0.99515299
0.99505302
0.99495340
0.99485414
0.99475524
0.99465668
0.99455847
0.99446062
0.99436310
0.99426593
0.99416910
0.99407261
0.99397646
0.99388065
0.99378517
0.99369002
0.99359520
0.99350071
0.99340654
0.99331271
0.99321919
0.99312600
0.99303312
0.99294056
0.99284832
0.99275639
0.99266478
0.99257347
0.99248247
0.99239178
0.99230139
0.99221131
0.99212152
0.99203204
0.99194285
0.99185396
0.99176536
0.99167706
0.99158904
0.99150131
0.99141387
0.99132671
0.99123984
0.99115325
0.99106693
0.99098090
0.99089513
0.99080965
0.99072443
0.99063949
0.99055481
0.99047040
0.99038625
0.99030237
0.99021875
0.99013539
0.99005229
0.98996944
0.98988685
0.98980450
0.98972241
0.98964057
0.98955898
0.98947763
0.98939652
0.98931566
0.98923504
0.98915465
0.98907450
0.98899459
0.98891491
0.98883546
0.98875624
0.98867725
0.98859848
0.98851994
0.98844162
0.98836353
0.98828565
0.98820799
0.98813054
0.98805331
0.98797629
0.98789948
0.98782288
0.98774649
0.98767030
0.98759432
0.98751854
0.98744295
0.98736757
0.98729239
0.98721739
0.98714260
0.98706799
0.98699358
0.98691935
0.98684531
0.98677145
0.98669778
0.98662429
0.98655098
0.98647784
0.98640489
0.98633211
0.98625950
0.98618706
0.98611479
0.98604269
0.98597076
0.98589899
0.98582739
0.98575595
0.98568466
0.98561354
0.98554257
0.98547175
0.98540109
0.98533058
0.98526023
0.98519001
0.98511995
0.98505003
0.98498025
0.98491062
0.98484112
0.98477177
0.98470255
0.98463346
0.98456451
0.98449569
0.98442700
0.98435844
0.98429001
0.98422170
0.98415351
0.98408545
0.98401751
0.98394968
0.98388198
0.98381438
0.98374691
0.98367954
0.98361229
0.98354514
0.98347811
0.98341117
0.98334435
0.98327762
0.98321100
0.98314448
0.98307805
0.98301172
0.98294549
0.98287935
0.98281330
0.98274734
0.98268147
0.98261568
0.98254998
0.98248437
0.98241884
0.98235338
0.98228801
0.98222271
0.98215749
0.98209235
0.98202728
0.98196227
0.98189734
0.98183248
0.98176768
0.98170295
0.98163828
0.98157367
0.98150912
0.98144463
0.98138020
0.98131583
0.98125151
0.98118724
0.98112302
0.98105885
0.98099473
0.98093066
0.98086663
0.98080264
0.98073870
0.98067480
0.98061093
0.98054711
0.98048331
0.98041956
0.98035583
0.98029214
0.98022848
0.98016484
0.98010123
0.98003765
0.97997409
0.97991055
0.97984704
0.97978354
0.97972006
0.97965659
0.97959315
0.97952971
0.97946629
0.97940287
0.97933947
0.97927607
0.97921268
0.97914929
0.97908590
0.97902252
0.97895913
0.97889575
0.97883236
0.97876897
0.97870557
0.97864216
0.97857874
0.97851532
0.97845188
0.97838843
0.97832496
0.97826148
0.97819798
0.97813446
0.97807092
0.97800735
0.97794377
0.97788016
0.97781652
0.97775285
0.97768916
0.97762543
0.97756167
0.97749788
0.97743406
0.97737019
0.97730629
0.97724235
0.97717837
0.97711434
0.97705028
0.97698616
0.97692200
0.97685780
0.97679354
0.97672923
0.97666487
0.97660046
0.97653599
0.97647147
0.97640688
0.97634224
0.97627754
0.97621277
0.97614795
0.97608305
0.97601809
0.97595307
0.97588797
0.97582280
0.97575756
0.97569225
0.97562687
0.97556140
0.97549586
0.97543025
0.97536455
0.97529877
0.97523290
0.97516695
0.97510092
0.97503480
0.97496859
0.97490229
0.97483590
0.97476942
0.97470284
0.97463617
0.97456940
0.97450254
0.97443557
0.97436850
0.97430134
0.97423406
0.97416669
0.97409920
0.97403161
0.97396391
0.97389610
0.97382818
0.97376015
0.97369200
0.97362373
0.97355535
0.97348685
0.97341824
0.97334950
0.97328063
0.97321165
0.97314254
0.97307330
0.97300394
0.97293444
0.97286482
0.97279507
0.97272518
0.97265516
0.97258500
0.97251470
0.97244427
0.97237370
0.97230299
0.97223213
0.97216113
0.97208999
0.97201870
0.97194727
0.97187568
0.97180395
0.97173206
0.97166002
0.97158783
0.97151549
0.97144298
0.97137032
0.97129750
0.97122452
0.97115138
0.97107808
0.97100461
0.97093097
0.97085717
0.97078321
0.97070907
0.97063476
0.97056028
0.97048563
0.97041080
0.97033580
0.97026062
0.97018526
0.97010973
0.97003401
0.96995811
0.96988203
0.96980576
0.96972931
0.96965267
0.96957584
0.96949882
0.96942162
0.96934422
0.96926662
0.96918884
0.96911086
0.96903268
0.96895430
0.96887572
0.96879694
0.96871797
0.96863878
0.96855940
0.96847980
0.96840001
0.96832000
0.96823978
0.96815936
0.96807872
0.96799787
0.96791680
0.96783552
0.96775402
0.96767231
0.96759038
0.96750822
0.96742585
0.96734325
0.96726043
0.96717738
0.96709411
0.96701060
0.96692688
0.96684292
0.96675873
0.96667430
0.96658965
0.96650476
0.96641963
0.96633427
0.96624866
0.96616282
0.96607674
0.96599042
0.96590385
0.96581704
0.96572998
0.96564268
0.96555513
0.96546733
0.96537928
0.96529098
0.96520243
0.96511362
0.96502456
0.96493524
0.96484567
0.96475584
0.96466574
0.96457539
0.96448477
0.96439390
0.96430276
0.96421135
0.96411968
0.96402773
0.96393552
0.96384304
0.96375029
0.96365727
0.96356397
0.96347040
0.96337656
0.96328243
0.96318803
0.96309335
0.96299839
0.96290315
0.96280763
0.96271182
0.96261573
0.96251935
0.96242268
0.96232573
0.96222849
0.96213095
0.96203313
0.96193501
0.96183660
0.96173790
0.96163889
0.96153959
0.96144000
0.96134010
0.96123990
0.96113940
0.96103860
0.96093750
0.96083609
0.96073437
0.96063235
0.96053001
0.96042737
0.96032442
0.96022116
0.96011758
0.96001369
0.95990949
0.95980497
0.95970013
0.95959497
0.95948950
0.95938370
0.95927759
0.95917115
0.95906438
0.95895730
0.95884988
0.95874214
0.95863408
0.95852568
0.95841695
0.95830789
0.95819850
0.95808878
0.95797872
0.95786833
0.95775760
0.95764653
0.95753512
0.95742338
0.95731129
0.95719886
0.95708609
0.95697297
0.95685951
0.95674570
0.95663155
0.95651705
0.95640220
0.95628699
0.95617144
0.95605553
0.95593928
0.95582266
0.95570569
0.95558837
0.95547068
0.95535264
0.95523424
0.95511548
0.95499635
0.95487686
0.95475701
0.95463680
0.95451621
0.95439526
0.95427395
0.95415226
0.95403020
0.95390778
0.95378498
0.95366180
0.95353826
0.95341433
0.95329003
0.95316536
0.95304030
0.95291487
0.95278906
0.95266286
0.95253629
0.95240932
0.95228198
0.95215425
0.95202613
0.95189763
0.95176874
0.95163945
0.95150978
0.95137972
0.95124926
0.95111841
0.95098717
0.95085553
0.95072350
0.95059106
0.95045823
0.95032500
0.95019137
0.95005734
0.94992290
0.94978807
0.94965282
0.94951718
0.94938112
0.94924466
0.94910779
0.94897052
0.94883283
0.94869473
0.94855622
0.94841729
0.94827795
0.94813820
0.94799803
0.94785744
0.94771644
0.94757501
0.94743317
0.94729091
0.94714822
0.94700511
0.94686158
0.94671762
0.94657324
0.94642843
0.94628319
0.94613753
0.94599143
0.94584491
0.94569795
0.94555056
0.94540274
0.94525449
0.94510579
0.94495667
0.94480710
0.94465710
0.94450666
0.94435578
0.94420446
0.94405269
0.94390049
0.94374784
0.94359474
0.94344120
0.94328722
0.94313278
0.94297790
0.94282257
0.94266679
0.94251056
0.94235387
0.94219674
0.94203914
0.94188110
0.94172260
0.94156364
0.94140423
0.94124435
0.94108402
0.94092323
0.94076197
0.94060026
0.94043808
0.94027544
0.94011233
0.93994876
0.93978472
0.93962021
0.93945524
0.93928979
0.93912388
0.93895749
0.93879063
0.93862330
0.93845550
0.93828722
0.93811846
0.93794923
0.93777953
0.93760934
0.93743867
0.93726753
0.93709590
0.93692379
0.93675120
0.93657813
0.93640457
0.93623053
0.93605600
0.93588098
0.93570548
0.93552948
0.93535300
0.93517603
0.93499856
0.93482060
0.93464215
0.93446321
0.93428377
0.93410383
0.93392340
0.93374247
0.93356105
0.93337912
0.93319669
0.93301376
0.93283034
0.93264640
0.93246197
0.93227703
0.93209158
0.93190563
0.93171917
0.93153221
0.93134473
0.93115675
0.93096826
0.93077925
0.93058974
0.93039971
0.93020916
0.93001810
0.92982653
0.92963444
0.92944184
0.92924871
0.92905507
0.92886091
0.92866622
0.92847102
0.92827529
0.92807904
0.92788227
0.92768497
0.92748715
0.92728880
0.92708993
0.92689052
0.92669059
0.92649013
0.92628914
0.92608762
0.92588556
0.92568297
0.92547985
0.92527620
0.92507201
0.92486728
0.92466202
0.92445622
0.92424988
0.92404300
0.92383558
0.92362762
0.92341912
0.92321008
0.92300049
0.92279036
0.92257969
0.92236847
0.92215670
0.92194438
0.92173152
0.92151811
0.92130415
0.92108964
0.92087457
0.92065896
0.92044279
0.92022607
0.92000880
0.91979097
0.91957258
0.91935364
0.91913414
0.91891408
0.91869346
0.91847228
0.91825054
0.91802824
0.91780538
0.91758195
0.91735797
0.91713341
0.91690829
0.91668261
0.91645636
0.91622954
0.91600215
0.91577420
0.91554567
0.91531657
0.91508690
0.91485666
0.91462585
0.91439446
0.91416250
0.91392996
0.91369685
0.91346316
0.91322890
0.91299405
0.91275863
0.91252262
0.91228604
0.91204887
0.91181112
0.91157279
0.91133388
0.91109438
0.91085430
0.91061363
0.91037237
0.91013053
0.90988810
0.90964508
0.90940147
0.90915727
0.90891248
0.90866710
0.90842112
0.90817456
0.90792740
0.90767964
0.90743129
0.90718234
0.90693280
0.90668266
0.90643192
0.90618058
0.90592864
0.90567610
0.90542296
0.90516922
0.90491488
0.90465993
0.90440438
0.90414822
0.90389146
0.90363409
0.90337612
0.90311753
0.90285834
0.90259854
0.90233813
0.90207711
0.90181548
0.90155324
0.90129038
0.90102691
0.90076283
0.90049813
0.90023282
0.89996689
0.89970034
0.89943318
0.89916540
0.89889700
0.89862798
0.89835834
0.89808808
0.89781719
0.89754569
0.89727356
0.89700081
0.89672743
0.89645343
0.89617880
0.89590354
0.89562766
0.89535115
0.89507401
0.89479625
0.89451785
0.89423882
0.89395916
0.89367887
0.89339795
0.89311639
0.89283420
0.89255137
0.89226791
0.89198381
0.89169908
0.89141371
0.89112770
0.89084105
0.89055376
0.89026583
0.88997726
0.88968805
0.88939820
0.88910771
0.88881657
0.88852479
0.88823236
0.88793929
0.88764557
0.88735120
0.88705619
0.88676053
0.88646422
0.88616726
0.88586965
0.88557139
0.88527248
0.88497292
0.88467270
0.88437183
0.88407031
0.88376814
0.88346530
0.88316181
0.88285767
0.88255287
0.88224741
0.88194129
0.88163451
0.88132708
0.88101898
0.88071022
0.88040080
0.88009072
0.87977998
0.87946857
0.87915649
0.87884376
0.87853035
0.87821629
0.87790155
0.87758615
0.87727008
0.87695334
0.87663593
0.87631785
0.87599910
0.87567968
0.87535959
0.87503883
0.87471739
0.87439528
0.87407249
0.87374903
0.87342490
0.87310009
0.87277460
0.87244844
0.87212159
0.87179407
0.87146587
0.87113699
0.87080743
0.87047719
0.87014627
0.86981466
0.86948237
0.86914940
0.86881575
0.86848141
0.86814638
0.86781067
0.86747427
0.86713719
0.86679942
0.86646096
0.86612181
0.86578197
0.86544144
0.86510022
0.86475831
0.86441571
0.86407242
0.86372843
0.86338375
0.86303838
0.86269231
0.86234554
0.86199808
0.86164992
0.86130107
0.86095152
0.86060127
0.86025032
0.85989867
0.85954632
0.85919327
0.85883952
0.85848507
0.85812992
0.85777406
0.85741750
0.85706023
0.85670226
0.85634359
0.85598421
0.85562412
0.85526333
0.85490183
0.85453962
0.85417670
0.85381308
0.85344874
0.85308369
0.85271794
0.85235147
0.85198429
0.85161639
0.85124779
0.85087846
0.85050843
0.85013768
0.84976622
0.84939403
0.84902114
0.84864752
0.84827319
0.84789814
0.84752237
0.84714588
0.84676868
0.84639075
0.84601210
0.84563273
0.84525263
0.84487182
