corrn_curve_quadratic
1.06169800
1.06160517
1.06151229
1.06141936
1.06132637
1.06123334
1.06114025
1.06104712
1.06095393
1.06086069
1.06076740
1.06067406
1.06058067
1.06048723
1.06039374
1.06030020
1.06020660
1.06011296
1.06001927
1.05992552
1.05983172
1.05973788
1.05964398
1.05955003
1.05945604
1.05936199
1.05926789
1.05917374
1.05907954
1.05898530
1.05889100
1.05879665
1.05870225
1.05860780
1.05851330
1.05841875
1.05832415
1.05822950
1.05813480
1.05804006
1.05794526
1.05785041
1.05775551
1.05766057
1.05756557
1.05747052
1.05737543
1.05728028
1.05718509
1.05708984
1.05699455
1.05689920
1.05680381
1.05670837
1.05661288
1.05651734
1.05642175
1.05632611
1.05623043
1.05613469
1.05603890
1.05594307
1.05584719
1.05575125
1.05565527
1.05555924
1.05546316
1.05536704
1.05527086
1.05517463
1.05507836
1.05498204
1.05488567
1.05478925
1.05469278
1.05459627
1.05449970
1.05440309
1.05430643
1.05420972
1.05411296
1.05401615
1.05391930
1.05382240
1.05372545
1.05362845
1.05353140
1.05343431
1.05333716
1.05323997
1.05314273
1.05304545
1.05294811
1.05285073
1.05275330
1.05265583
1.05255830
1.05246073
1.05236311
1.05226544
1.05216772
1.05206996
1.05197215
1.05187429
1.05177639
1.05167843
1.05158044
1.05148239
1.05138429
1.05128615
1.05118796
1.05108973
1.05099144
1.05089311
1.05079474
1.05069631
1.05059784
1.05049932
1.05040076
1.05030215
1.05020349
1.05010478
1.05000603
1.04990723
1.04980839
1.04970950
1.04961056
1.04951157
1.04941254
1.04931346
1.04921434
1.04911517
1.04901595
1.04891668
1.04881737
1.04871802
1.04861862
1.04851917
1.04841967
1.04832013
1.04822054
1.04812091
1.04802123
1.04792151
1.04782173
1.04772192
1.04762205
1.04752214
1.04742219
1.04732219
1.04722214
1.04712205
1.04702191
1.04692173
1.04682150
1.04672123
1.04662091
1.04652054
1.04642013
1.04631967
1.04621917
1.04611862
1.04601803
1.04591739
1.04581671
1.04571598
1.04561521
1.04551439
1.04541353
1.04531262
1.04521166
1.04511067
1.04500962
1.04490853
1.04480740
1.04470622
1.04460500
1.04450373
1.04440242
1.04430106
1.04419966
1.04409821
1.04399672
1.04389518
1.04379360
1.04369198
1.04359031
1.04348859
1.04338683
1.04328503
1.04318318
1.04308129
1.04297935
1.04287737
1.04277535
1.04267328
1.04257117
1.04246901
1.04236681
1.04226456
1.04216227
1.04205994
1.04195756
1.04185514
1.04175268
1.04165017
1.04154762
1.04144502
1.04134238
1.04123970
1.04113697
1.04103420
1.04093138
1.04082853
1.04072562
1.04062268
1.04051969
1.04041666
1.04031358
1.04021046
1.04010730
1.04000409
1.03990085
1.03979755
1.03969422
1.03959084
1.03948742
1.03938395
1.03928044
1.03917689
1.03907330
1.03896966
1.03886598
1.03876226
1.03865850
1.03855469
1.03845084
1.03834694
1.03824301
1.03813903
1.03803500
1.03793094
1.03782683
1.03772268
1.03761849
1.03751425
1.03740998
1.03730566
1.03720129
1.03709689
1.03699244
1.03688795
1.03678342
1.03667885
1.03657423
1.03646957
1.03636487
1.03626013
1.03615535
1.03605052
1.03594565
1.03584074
1.03573579
1.03563079
1.03552576
1.03542068
1.03531556
1.03521040
1.03510520
1.03499995
1.03489466
1.03478934
1.03468396
1.03457855
1.03447310
1.03436761
1.03426207
1.03415649
1.03405087
1.03394521
1.03383951
1.03373377
1.03362798
1.03352216
1.03341629
1.03331038
1.03320443
1.03309844
1.03299241
1.03288634
1.03278022
1.03267407
1.03256787
1.03246164
1.03235536
1.03224904
1.03214268
1.03203628
1.03192984
1.03182336
1.03171684
1.03161027
1.03150367
1.03139702
1.03129034
1.03118361
1.03107685
1.03097004
1.03086320
1.03075631
1.03064938
1.03054241
1.03043540
1.03032835
1.03022127
1.03011414
1.03000697
1.02989976
1.02979251
1.02968522
1.02957789
1.02947052
1.02936311
1.02925566
1.02914817
1.02904064
1.02893307
1.02882546
1.02871781
1.02861012
1.02850239
1.02839462
1.02828681
1.02817896
1.02807108
1.02796315
1.02785518
1.02774718
1.02763913
1.02753104
1.02742292
1.02731475
1.02720655
1.02709831
1.02699002
1.02688170
1.02677334
1.02666494
1.02655650
1.02644802
1.02633950
1.02623095
1.02612235
1.02601372
1.02590504
1.02579633
1.02568758
1.02557879
1.02546996
1.02536109
1.02525218
1.02514323
1.02503425
1.02492522
1.02481616
1.02470706
1.02459792
1.02448874
1.02437952
1.02427027
1.02416097
1.02405164
1.02394227
1.02383286
1.02372341
1.02361392
1.02350440
1.02339483
1.02328523
1.02317559
1.02306592
1.02295620
1.02284644
1.02273665
1.02262682
1.02251695
1.02240705
1.02229710
1.02218712
1.02207710
1.02196704
1.02185694
1.02174681
1.02163663
1.02152642
1.02141618
1.02130589
1.02119557
1.02108521
1.02097481
1.02086437
1.02075390
1.02064339
1.02053284
1.02042225
1.02031163
1.02020096
1.02009027
1.01997953
1.01986876
1.01975795
1.01964710
1.01953621
1.01942529
1.01931433
1.01920333
1.01909230
1.01898123
1.01887012
1.01875897
1.01864779
1.01853657
1.01842531
1.01831402
1.01820269
1.01809132
1.01797992
1.01786848
1.01775700
1.01764548
1.01753393
1.01742234
1.01731072
1.01719906
1.01708736
1.01697563
1.01686385
1.01675205
1.01664020
1.01652832
1.01641640
1.01630445
1.01619246
1.01608043
1.01596837
1.01585627
1.01574414
1.01563197
1.01551976
1.01540751
1.01529523
1.01518292
1.01507057
1.01495818
1.01484575
1.01473329
1.01462080
1.01450826
1.01439570
1.01428309
1.01417045
1.01405778
1.01394507
1.01383232
1.01371953
1.01360672
1.01349386
1.01338097
1.01326805
1.01315508
1.01304209
1.01292905
1.01281599
1.01270288
1.01258974
1.01247657
1.01236336
1.01225011
1.01213683
1.01202352
1.01191017
1.01179678
1.01168336
1.01156990
1.01145641
1.01134288
1.01122932
1.01111572
1.01100209
1.01088842
1.01077472
1.01066098
1.01054721
1.01043340
1.01031956
1.01020568
1.01009177
1.00997782
1.00986384
1.00974982
1.00963577
1.00952168
1.00940756
1.00929341
1.00917922
1.00906499
1.00895074
1.00883644
1.00872211
1.00860775
1.00849335
1.00837892
1.00826446
1.00814996
1.00803542
1.00792085
1.00780625
1.00769161
1.00757694
1.00746223
1.00734749
1.00723272
1.00711791
1.00700307
1.00688819
1.00677328
1.00665834
1.00654336
1.00642835
1.00631330
1.00619822
1.00608311
1.00596796
1.00585278
1.00573756
1.00562231
1.00550703
1.00539171
1.00527636
1.00516098
1.00504556
1.00493011
1.00481462
1.00469911
1.00458355
1.00446797
1.00435235
1.00423670
1.00412101
1.00400529
1.00388954
1.00377375
1.00365793
1.00354208
1.00342620
1.00331028
1.00319433
1.00307834
1.00296232
1.00284627
1.00273019
1.00261407
1.00249792
1.00238173
1.00226552
1.00214927
1.00203299
1.00191667
1.00180032
1.00168394
1.00156753
1.00145108
1.00133460
1.00121809
1.00110154
1.00098497
1.00086836
1.00075171
1.00063504
1.00051833
1.00040159
1.00028482
1.00016801
1.00005117
0.99993430
0.99981740
0.99970047
0.99958350
0.99946650
0.99934947
0.99923240
0.99911531
0.99899818
0.99888101
0.99876382
0.99864660
0.99852934
0.99841205
0.99829473
0.99817737
0.99805999
0.99794257
0.99782512
0.99770764
0.99759012
0.99747258
0.99735500
0.99723739
0.99711975
0.99700208
0.99688437
0.99676664
0.99664887
0.99653107
0.99641324
0.99629538
0.99617748
0.99605956
0.99594160
0.99582361
0.99570559
0.99558754
0.99546945
0.99535134
0.99523319
0.99511501
0.99499680
0.99487856
0.99476029
0.99464199
0.99452366
0.99440529
0.99428689
0.99416847
0.99405001
0.99393152
0.99381300
0.99369444
0.99357586
0.99345725
0.99333860
0.99321993
0.99310122
0.99298248
0.99286371
0.99274491
0.99262608
0.99250722
0.99238833
0.99226941
0.99215045
0.99203147
0.99191245
0.99179341
0.99167433
0.99155523
0.99143609
0.99131692
0.99119772
0.99107849
0.99095923
0.99083994
0.99072062
0.99060127
0.99048189
0.99036248
0.99024304
0.99012357
0.99000407
0.98988453
0.98976497
0.98964538
0.98952576
0.98940610
0.98928642
0.98916671
0.98904696
0.98892719
0.98880739
0.98868755
0.98856769
0.98844780
0.98832787
0.98820792
0.98808794
0.98796792
0.98784788
0.98772781
0.98760771
0.98748758
0.98736741
0.98724722
0.98712700
0.98700675
0.98688647
0.98676616
0.98664582
0.98652545
0.98640505
0.98628463
0.98616417
0.98604368
0.98592317
0.98580262
0.98568204
0.98556144
0.98544081
0.98532014
0.98519945
0.98507873
0.98495798
0.98483720
0.98471639
0.98459555
0.98447468
0.98435379
0.98423286
0.98411191
0.98399092
0.98386991
0.98374887
0.98362780
0.98350670
0.98338557
0.98326441
0.98314323
0.98302201
0.98290077
0.98277950
0.98265819
0.98253686
0.98241551
0.98229412
0.98217270
0.98205126
0.98192978
0.98180828
0.98168675
0.98156519
0.98144360
0.98132199
0.98120034
0.98107867
0.98095697
0.98083524
0.98071348
0.98059169
0.98046988
0.98034804
0.98022616
0.98010426
0.97998234
0.97986038
0.97973840
0.97961638
0.97949434
0.97937227
0.97925018
0.97912805
0.97900590
0.97888372
0.97876151
0.97863927
0.97851701
0.97839471
0.97827239
0.97815004
0.97802767
0.97790526
0.97778283
0.97766037
0.97753788
0.97741537
0.97729283
0.97717026
0.97704766
0.97692503
0.97680238
0.97667970
0.97655699
0.97643425
0.97631149
0.97618870
0.97606588
0.97594303
0.97582016
0.97569725
0.97557433
0.97545137
0.97532839
0.97520538
0.97508234
0.97495927
0.97483618
0.97471306
0.97458991
0.97446674
0.97434354
0.97422031
0.97409706
0.97397377
0.97385046
0.97372713
0.97360376
0.97348037
0.97335696
0.97323351
0.97311004
0.97298654
0.97286302
0.97273946
0.97261589
0.97249228
0.97236865
0.97224499
0.97212130
0.97199759
0.97187385
0.97175009
0.97162629
0.97150247
0.97137863
0.97125476
0.97113086
0.97100693
0.97088298
0.97075900
0.97063500
0.97051096
0.97038691
0.97026282
0.97013871
0.97001458
0.96989041
0.96976622
0.96964201
0.96951776
0.96939350
0.96926920
0.96914488
0.96902053
0.96889616
0.96877176
0.96864734
0.96852289
0.96839841
0.96827391
0.96814938
0.96802482
0.96790024
0.96777563
0.96765100
0.96752634
0.96740165
0.96727694
0.96715221
0.96702744
0.96690266
0.96677784
0.96665300
0.96652814
0.96640325
0.96627833
0.96615339
0.96602842
0.96590343
0.96577841
0.96565336
0.96552829
0.96540319
0.96527807
0.96515293
0.96502775
0.96490256
0.96477733
0.96465208
0.96452681
0.96440151
0.96427619
0.96415084
0.96402546
0.96390006
0.96377464
0.96364918
0.96352371
0.96339821
0.96327268
0.96314713
0.96302155
0.96289595
0.96277032
0.96264467
0.96251900
0.96239329
0.96226757
0.96214182
0.96201604
0.96189024
0.96176441
0.96163856
0.96151268
0.96138678
0.96126086
0.96113491
0.96100893
0.96088293
0.96075691
0.96063086
0.96050478
0.96037869
0.96025256
0.96012641
0.96000024
0.95987404
0.95974782
0.95962158
0.95949531
0.95936901
0.95924269
0.95911635
0.95898998
0.95886359
0.95873717
0.95861073
0.95848426
0.95835777
0.95823126
0.95810472
0.95797816
0.95785157
0.95772496
0.95759832
0.95747166
0.95734498
0.95721827
0.95709154
0.95696479
0.95683801
0.95671120
0.95658437
0.95645752
0.95633065
0.95620375
0.95607682
0.95594987
0.95582290
0.95569591
0.95556889
0.95544184
0.95531478
0.95518769
0.95506057
0.95493343
0.95480627
0.95467909
0.95455188
0.95442465
0.95429739
0.95417011
0.95404281
0.95391548
0.95378813
0.95366075
0.95353336
0.95340593
0.95327849
0.95315102
0.95302353
0.95289601
0.95276848
0.95264091
0.95251333
0.95238572
0.95225809
0.95213044
0.95200276
0.95187506
0.95174733
0.95161958
0.95149181
0.95136402
0.95123620
0.95110836
0.95098050
0.95085261
0.95072470
0.95059677
0.95046881
0.95034084
0.95021283
0.95008481
0.94995676
0.94982869
0.94970060
0.94957248
0.94944434
0.94931618
0.94918800
0.94905979
0.94893156
0.94880331
0.94867503
0.94854674
0.94841841
0.94829007
0.94816171
0.94803332
0.94790491
0.94777647
0.94764802
0.94751954
0.94739104
0.94726251
0.94713397
0.94700540
0.94687681
0.94674819
0.94661956
0.94649090
0.94636222
0.94623351
0.94610479
0.94597604
0.94584727
0.94571848
0.94558966
0.94546083
0.94533197
0.94520309
0.94507418
0.94494526
0.94481631
0.94468734
0.94455835
0.94442934
0.94430030
0.94417124
0.94404216
0.94391306
0.94378394
0.94365479
0.94352563
0.94339644
0.94326723
0.94313799
0.94300874
0.94287946
0.94275016
0.94262084
0.94249150
0.94236214
0.94223275
0.94210334
0.94197392
0.94184447
0.94171499
0.94158550
0.94145598
0.94132645
0.94119689
0.94106731
0.94093771
0.94080808
0.94067844
0.94054877
0.94041909
0.94028938
0.94015965
0.94002990
0.93990012
0.93977033
0.93964051
0.93951068
0.93938082
0.93925094
0.93912104
0.93899112
0.93886117
0.93873121
0.93860122
0.93847122
0.93834119
0.93821114
0.93808107
0.93795098
0.93782087
0.93769074
0.93756058
0.93743041
0.93730021
0.93716999
0.93703976
0.93690950
0.93677922
0.93664892
0.93651860
0.93638825
0.93625789
0.93612751
0.93599710
0.93586668
0.93573623
0.93560576
0.93547528
0.93534477
0.93521424
0.93508369
0.93495312
0.93482253
0.93469192
0.93456128
0.93443063
0.93429996
0.93416927
0.93403855
0.93390782
0.93377706
0.93364629
0.93351549
0.93338467
0.93325384
0.93312298
0.93299210
0.93286121
0.93273029
0.93259935
0.93246839
0.93233741
0.93220641
0.93207539
0.93194435
0.93181329
0.93168221
0.93155111
0.93141999
0.93128885
0.93115769
0.93102651
0.93089531
0.93076409
0.93063285
0.93050159
0.93037031
0.93023901
0.93010769
0.92997635
0.92984499
0.92971361
0.92958221
0.92945079
0.92931935
0.92918790
0.92905642
0.92892492
0.92879340
0.92866186
0.92853030
0.92839873
0.92826713
0.92813551
0.92800387
0.92787222
0.92774054
0.92760885
0.92747713
0.92734540
0.92721364
0.92708187
0.92695008
0.92681827
0.92668643
0.92655458
0.92642271
0.92629082
0.92615891
0.92602698
0.92589504
0.92576307
0.92563108
0.92549907
0.92536705
0.92523500
0.92510294
0.92497086
0.92483876
0.92470663
0.92457449
0.92444233
0.92431015
0.92417796
0.92404574
0.92391350
0.92378125
0.92364897
0.92351668
0.92338437
0.92325204
0.92311969
0.92298732
0.92285493
0.92272252
0.92259010
0.92245765
0.92232519
0.92219271
0.92206021
0.92192769
0.92179515
0.92166259
0.92153001
0.92139742
0.92126480
0.92113217
0.92099952
0.92086685
0.92073416
0.92060146
0.92046873
0.92033599
0.92020322
0.92007044
0.91993764
0.91980482
0.91967199
0.91953913
0.91940626
0.91927336
0.91914045
0.91900753
0.91887458
0.91874161
0.91860863
0.91847562
0.91834260
0.91820956
0.91807651
0.91794343
0.91781034
0.91767723
0.91754409
0.91741095
0.91727778
0.91714459
0.91701139
0.91687817
0.91674493
0.91661167
0.91647840
0.91634510
0.91621179
0.91607846
0.91594512
0.91581175
0.91567837
0.91554496
0.91541154
0.91527811
0.91514465
0.91501118
0.91487769
0.91474418
0.91461065
0.91447711
0.91434354
0.91420996
0.91407637
0.91394275
0.91380912
0.91367547
0.91354180
0.91340811
0.91327441
0.91314069
0.91300695
0.91287319
0.91273941
0.91260562
0.91247181
0.91233798
0.91220414
0.91207028
0.91193640
0.91180250
0.91166859
0.91153465
0.91140070
0.91126674
0.91113275
0.91099875
0.91086473
0.91073070
0.91059664
0.91046257
0.91032848
0.91019438
0.91006025
0.90992611
0.90979196
0.90965778
0.90952359
0.90938938
0.90925515
0.90912091
0.90898665
0.90885237
0.90871808
0.90858377
0.90844944
0.90831509
0.90818073
0.90804635
0.90791195
0.90777754
0.90764311
0.90750866
0.90737420
0.90723972
0.90710522
0.90697070
0.90683617
0.90670162
0.90656706
0.90643248
0.90629788
0.90616326
0.90602863
0.90589398
0.90575931
0.90562463
0.90548993
0.90535521
0.90522048
0.90508573
0.90495097
0.90481618
0.90468138
0.90454657
0.90441174
0.90427689
0.90414202
0.90400714
0.90387224
0.90373733
0.90360240
0.90346745
0.90333248
0.90319750
0.90306251
0.90292749
0.90279246
0.90265742
0.90252235
0.90238728
0.90225218
0.90211707
0.90198194
0.90184680
0.90171164
0.90157646
0.90144127
0.90130606
0.90117084
0.90103560
0.90090034
0.90076507
0.90062978
0.90049447
0.90035915
0.90022381
0.90008846
0.89995309
0.89981771
0.89968230
0.89954689
0.89941145
0.89927601
0.89914054
0.89900506
0.89886956
0.89873405
0.89859852
0.89846298
0.89832742
0.89819184
0.89805625
0.89792064
0.89778502
0.89764938
0.89751372
0.89737805
0.89724237
0.89710667
0.89697095
0.89683521
0.89669947
0.89656370
0.89642792
0.89629213
0.89615631
0.89602049
0.89588465
0.89574879
0.89561291
0.89547703
0.89534112
0.89520520
0.89506927
0.89493332
0.89479735
0.89466137
0.89452537
0.89438936
0.89425333
0.89411729
0.89398123
0.89384516
0.89370907
0.89357297
0.89343685
0.89330071
0.89316456
0.89302840
0.89289222
0.89275602
0.89261981
0.89248359
0.89234735
0.89221109
0.89207482
0.89193853
0.89180223
0.89166592
0.89152959
0.89139324
0.89125688
0.89112050
0.89098411
0.89084771
0.89071129
0.89057485
0.89043840
0.89030193
0.89016545
0.89002896
0.88989245
0.88975592
0.88961938
0.88948283
0.88934626
0.88920967
0.88907308
0.88893646
0.88879983
0.88866319
0.88852653
0.88838986
0.88825317
0.88811647
0.88797976
0.88784302
0.88770628
0.88756952
0.88743274
0.88729595
0.88715915
0.88702233
0.88688550
0.88674865
0.88661179
0.88647491
0.88633802
0.88620112
0.88606420
0.88592726
0.88579032
0.88565335
0.88551638
0.88537938
0.88524238
0.88510536
0.88496832
0.88483128
0.88469421
0.88455713
0.88442004
0.88428294
0.88414582
0.88400868
0.88387154
0.88373437
0.88359720
0.88346001
0.88332280
0.88318558
0.88304835
0.88291110
0.88277384
0.88263657
0.88249928
0.88236197
0.88222466
0.88208732
0.88194998
0.88181262
0.88167525
0.88153786
0.88140046
0.88126304
0.88112562
0.88098817
0.88085072
0.88071325
0.88057576
0.88043826
0.88030075
0.88016323
0.88002569
0.87988814
0.87975057
0.87961299
0.87947539
0.87933779
0.87920017
0.87906253
0.87892488
0.87878722
0.87864954
0.87851185
0.87837415
0.87823643
0.87809870
0.87796096
0.87782320
0.87768543
0.87754765
0.87740985
0.87727204
0.87713421
0.87699637
0.87685852
0.87672066
0.87658278
0.87644489
0.87630698
0.87616906
0.87603113
0.87589319
0.87575523
0.87561726
0.87547927
0.87534127
0.87520326
0.87506524
0.87492720
0.87478915
0.87465108
0.87451300
0.87437491
0.87423681
0.87409869
0.87396056
0.87382242
0.87368426
0.87354609
0.87340791
0.87326971
0.87313151
0.87299328
0.87285505
0.87271680
0.87257854
0.87244027
0.87230198
0.87216368
0.87202537
0.87188704
0.87174871
0.87161035
0.87147199
0.87133361
0.87119522
0.87105682
0.87091841
0.87077998
0.87064154
0.87050308
0.87036462
0.87022614
0.87008765
0.86994914
0.86981062
0.86967209
0.86953355
0.86939500
0.86925643
0.86911785
0.86897925
0.86884065
0.86870203
0.86856340
