corrn_curve_quartic
0.63749457
0.63945350
0.64140583
0.64335157
0.64529073
0.64722333
0.64914938
0.65106888
0.65298186
0.65488832
0.65678828
0.65868174
0.66056872
0.66244924
0.66432329
0.66619090
0.66805208
0.66990684
0.67175519
0.67359714
0.67543270
0.67726189
0.67908472
0.68090119
0.68271133
0.68451514
0.68631264
0.68810383
0.68988873
0.69166735
0.69343970
0.69520579
0.69696564
0.69871925
0.70046664
0.70220783
0.70394281
0.70567161
0.70739423
0.70911068
0.71082099
0.71252515
0.71422318
0.71591510
0.71760091
0.71928062
0.72095426
0.72262182
0.72428331
0.72593876
0.72758818
0.72923156
0.73086893
0.73250030
0.73412568
0.73574507
0.73735850
0.73896597
0.74056749
0.74216308
0.74375274
0.74533649
0.74691434
0.74848630
0.75005238
0.75161259
0.75316694
0.75471545
0.75625813
0.75779499
0.75932603
0.76085127
0.76237072
0.76388440
0.76539231
0.76689446
0.76839087
0.76988154
0.77136650
0.77284574
0.77431928
0.77578713
0.77724931
0.77870581
0.78015666
0.78160187
0.78304144
0.78447539
0.78590373
0.78732646
0.78874361
0.79015517
0.79156117
0.79296161
0.79435650
0.79574586
0.79712970
0.79850802
0.79988083
0.80124816
0.80261000
0.80396638
0.80531729
0.80666275
0.80800278
0.80933738
0.81066656
0.81199034
0.81330872
0.81462172
0.81592935
0.81723161
0.81852852
0.81982009
0.82110632
0.82238724
0.82366285
0.82493316
0.82619818
0.82745792
0.82871240
0.82996162
0.83120560
0.83244433
0.83367785
0.83490615
0.83612925
0.83734715
0.83855987
0.83976742
0.84096981
0.84216705
0.84335914
0.84454611
0.84572795
0.84690469
0.84807633
0.84924288
0.85040435
0.85156076
0.85271210
0.85385840
0.85499967
0.85613591
0.85726713
0.85839334
0.85951456
0.86063080
0.86174206
0.86284836
0.86394970
0.86504610
0.86613757
0.86722411
0.86830574
0.86938247
0.87045430
0.87152125
0.87258333
0.87364055
0.87469292
0.87574044
0.87678313
0.87782100
0.87885406
0.87988232
0.88090579
0.88192447
0.88293838
0.88394754
0.88495194
0.88595160
0.88694653
0.88793674
0.88892224
0.88990304
0.89087914
0.89185057
0.89281732
0.89377942
0.89473686
0.89568966
0.89663783
0.89758138
0.89852031
0.89945465
0.90038439
0.90130956
0.90223015
0.90314617
0.90405765
0.90496458
0.90586698
0.90676486
0.90765823
0.90854709
0.90943146
0.91031134
0.91118675
0.91205770
0.91292419
0.91378623
0.91464385
0.91549703
0.91634580
0.91719017
0.91803013
0.91886571
0.91969692
0.92052376
0.92134623
0.92216436
0.92297816
0.92378762
0.92459276
0.92539360
0.92619013
0.92698237
0.92777033
0.92855402
0.92933345
0.93010862
0.93087955
0.93164625
0.93240873
0.93316698
0.93392104
0.93467090
0.93541657
0.93615806
0.93689539
0.93762855
0.93835757
0.93908245
0.93980320
0.94051983
0.94123235
0.94194077
0.94264509
0.94334533
0.94404150
0.94473360
0.94542165
0.94610565
0.94678561
0.94746155
0.94813346
0.94880137
0.94946528
0.95012520
0.95078113
0.95143310
0.95208110
0.95272515
0.95336525
0.95400142
0.95463366
0.95526198
0.95588640
0.95650691
0.95712354
0.95773629
0.95834516
0.95895017
0.95955133
0.96014864
0.96074212
0.96133178
0.96191761
0.96249964
0.96307786
0.96365230
0.96422296
0.96478984
0.96535296
0.96591233
0.96646795
0.96701983
0.96756799
0.96811243
0.96865316
0.96919018
0.96972352
0.97025317
0.97077915
0.97130146
0.97182012
0.97233513
0.97284650
0.97335424
0.97385836
0.97435887
0.97485578
0.97534908
0.97583881
0.97632496
0.97680753
0.97728655
0.97776202
0.97823395
0.97870234
0.97916721
0.97962856
0.98008640
0.98054075
0.98099161
0.98143898
0.98188288
0.98232332
0.98276030
0.98319384
0.98362394
0.98405061
0.98447386
0.98489369
0.98531012
0.98572316
0.98613281
0.98653908
0.98694199
0.98734153
0.98773772
0.98813056
0.98852007
0.98890626
0.98928912
0.98966868
0.99004493
0.99041789
0.99078757
0.99115397
0.99151710
0.99187697
0.99223359
0.99258697
0.99293712
0.99328404
0.99362774
0.99396823
0.99430553
0.99463963
0.99497055
0.99529829
0.99562286
0.99594428
0.99626254
0.99657766
0.99688965
0.99719851
0.99750426
0.99780690
0.99810643
0.99840287
0.99869623
0.99898651
0.99927372
0.99955788
0.99983898
1.00011704
1.00039206
1.00066405
1.00093303
1.00119900
1.00146196
1.00172193
1.00197891
1.00223291
1.00248394
1.00273201
1.00297713
1.00321930
1.00345853
1.00369484
1.00392822
1.00415868
1.00438625
1.00461091
1.00483268
1.00505158
1.00526759
1.00548075
1.00569104
1.00589849
1.00610309
1.00630486
1.00650380
1.00669993
1.00689324
1.00708375
1.00727147
1.00745640
1.00763856
1.00781794
1.00799456
1.00816843
1.00833955
1.00850793
1.00867357
1.00883650
1.00899671
1.00915421
1.00930901
1.00946112
1.00961054
1.00975729
1.00990137
1.01004279
1.01018155
1.01031767
1.01045115
1.01058200
1.01071023
1.01083584
1.01095885
1.01107925
1.01119707
1.01131230
1.01142495
1.01153504
1.01164256
1.01174753
1.01184996
1.01194985
1.01204720
1.01214204
1.01223435
1.01232416
1.01241147
1.01249629
1.01257863
1.01265848
1.01273587
1.01281079
1.01288326
1.01295328
1.01302086
1.01308601
1.01314873
1.01320904
1.01326693
1.01332243
1.01337553
1.01342624
1.01347457
1.01352053
1.01356412
1.01360536
1.01364425
1.01368079
1.01371500
1.01374688
1.01377643
1.01380368
1.01382862
1.01385126
1.01387161
1.01388967
1.01390546
1.01391898
1.01393024
1.01393924
1.01394600
1.01395051
1.01395280
1.01395285
1.01395069
1.01394632
1.01393974
1.01393097
1.01392001
1.01390687
1.01389155
1.01387406
1.01385442
1.01383262
1.01380867
1.01378258
1.01375437
1.01372403
1.01369157
1.01365700
1.01362033
1.01358156
1.01354070
1.01349777
1.01345275
1.01340567
1.01335653
1.01330534
1.01325210
1.01319682
1.01313951
1.01308017
1.01301882
1.01295545
1.01289008
1.01282271
1.01275336
1.01268202
1.01260870
1.01253342
1.01245617
1.01237697
1.01229582
1.01221273
1.01212770
1.01204075
1.01195188
1.01186109
1.01176840
1.01167381
1.01157732
1.01147895
1.01137870
1.01127658
1.01117259
1.01106675
1.01095905
1.01084951
1.01073813
1.01062492
1.01050989
1.01039304
1.01027438
1.01015392
1.01003165
1.00990760
1.00978177
1.00965416
1.00952478
1.00939363
1.00926073
1.00912608
1.00898969
1.00885156
1.00871171
1.00857013
1.00842683
1.00828182
1.00813512
1.00798671
1.00783662
1.00768484
1.00753139
1.00737627
1.00721949
1.00706105
1.00690096
1.00673923
1.00657586
1.00641087
1.00624425
1.00607601
1.00590617
1.00573472
1.00556167
1.00538704
1.00521082
1.00503303
1.00485366
1.00467273
1.00449024
1.00430621
1.00412062
1.00393350
1.00374485
1.00355468
1.00336298
1.00316978
1.00297507
1.00277886
1.00258115
1.00238196
1.00218130
1.00197915
1.00177555
1.00157048
1.00136395
1.00115598
1.00094657
1.00073573
1.00052345
1.00030976
1.00009464
0.99987812
0.99966020
0.99944088
0.99922016
0.99899807
0.99877460
0.99854975
0.99832354
0.99809597
0.99786705
0.99763679
0.99740518
0.99717224
0.99693797
0.99670238
0.99646548
0.99622727
0.99598775
0.99574694
0.99550484
0.99526146
0.99501679
0.99477086
0.99452366
0.99427520
0.99402549
0.99377454
0.99352234
0.99326891
0.99301425
0.99275837
0.99250127
0.99224296
0.99198345
0.99172274
0.99146084
0.99119776
0.99093349
0.99066805
0.99040145
0.99013368
0.98986476
0.98959469
0.98932348
0.98905113
0.98877765
0.98850305
0.98822732
0.98795049
0.98767255
0.98739350
0.98711336
0.98683214
0.98654983
0.98626644
0.98598199
0.98569646
0.98540988
0.98512225
0.98483357
0.98454385
0.98425309
0.98396131
0.98366850
0.98337467
0.98307984
0.98278399
0.98248715
0.98218931
0.98189049
0.98159068
0.98128990
0.98098815
0.98068543
0.98038175
0.98007712
0.97977155
0.97946503
0.97915758
0.97884919
0.97853989
0.97822966
0.97791853
0.97760649
0.97729354
0.97697970
0.97666498
0.97634937
0.97603288
0.97571552
0.97539729
0.97507821
0.97475826
0.97443747
0.97411584
0.97379337
0.97347007
0.97314594
0.97282099
0.97249522
0.97216865
0.97184127
0.97151309
0.97118413
0.97085437
0.97052384
0.97019253
0.96986045
0.96952760
0.96919400
0.96885964
0.96852454
0.96818869
0.96785211
0.96751480
0.96717677
0.96683801
0.96649854
0.96615836
0.96581748
0.96547590
0.96513363
0.96479068
0.96444704
0.96410273
0.96375775
0.96341210
0.96306580
0.96271884
0.96237123
0.96202299
0.96167410
0.96132459
0.96097445
0.96062368
0.96027231
0.95992032
0.95956773
0.95921454
0.95886076
0.95850639
0.95815144
0.95779591
0.95743981
0.95708314
0.95672591
0.95636812
0.95600979
0.95565091
0.95529149
0.95493154
0.95457106
0.95421005
0.95384853
0.95348650
0.95312395
0.95276091
0.95239737
0.95203333
0.95166881
0.95130381
0.95093833
0.95057239
0.95020597
0.94983910
0.94947178
0.94910400
0.94873578
0.94836712
0.94799803
0.94762851
0.94725856
0.94688820
0.94651742
0.94614624
0.94577465
0.94540267
0.94503029
0.94465753
0.94428439
0.94391087
0.94353698
0.94316272
0.94278810
0.94241312
0.94203780
0.94166213
0.94128611
0.94090977
0.94053309
0.94015608
0.93977876
0.93940112
0.93902317
0.93864492
0.93826636
0.93788752
0.93750838
0.93712895
0.93674925
0.93636927
0.93598903
0.93560852
0.93522775
0.93484672
0.93446545
0.93408393
0.93370217
0.93332017
0.93293795
0.93255550
0.93217284
0.93178996
0.93140686
0.93102357
0.93064007
0.93025638
0.92987250
0.92948844
0.92910420
0.92871978
0.92833519
0.92795043
0.92756552
0.92718045
0.92679522
0.92640986
0.92602435
0.92563871
0.92525293
0.92486703
0.92448101
0.92409488
0.92370863
0.92332227
0.92293581
0.92254926
0.92216261
0.92177588
0.92138906
0.92100217
0.92061520
0.92022817
0.91984107
0.91945391
0.91906670
0.91867944
0.91829214
0.91790479
0.91751741
0.91713001
0.91674257
0.91635512
0.91596765
0.91558017
0.91519268
0.91480519
0.91441771
0.91403023
0.91364277
0.91325532
0.91286789
0.91248049
0.91209313
0.91170580
0.91131851
0.91093126
0.91054406
0.91015692
0.90976984
0.90938282
0.90899588
0.90860900
0.90822220
0.90783549
0.90744886
0.90706232
0.90667588
0.90628954
0.90590331
0.90551718
0.90513117
0.90474528
0.90435952
0.90397388
0.90358837
0.90320300
0.90281778
0.90243270
0.90204777
0.90166300
0.90127839
0.90089394
0.90050966
0.90012555
0.89974163
0.89935788
0.89897432
0.89859096
0.89820779
0.89782482
0.89744206
0.89705950
0.89667716
0.89629504
0.89591314
0.89553147
0.89515003
0.89476883
0.89438786
0.89400715
0.89362668
0.89324646
0.89286651
0.89248681
0.89210739
0.89172823
0.89134935
0.89097075
0.89059244
0.89021442
0.88983668
0.88945925
0.88908212
0.88870529
0.88832878
0.88795258
0.88757670
0.88720114
0.88682591
0.88645102
0.88607646
0.88570224
0.88532837
0.88495485
0.88458168
0.88420887
0.88383642
0.88346434
0.88309263
0.88272129
0.88235034
0.88197976
0.88160958
0.88123979
0.88087040
0.88050140
0.88013281
0.87976463
0.87939687
0.87902952
0.87866259
0.87829609
0.87793002
0.87756439
0.87719919
0.87683443
0.87647013
0.87610627
0.87574287
0.87537993
0.87501745
0.87465544
0.87429391
0.87393285
0.87357226
0.87321217
0.87285256
0.87249345
0.87213483
0.87177671
0.87141910
0.87106199
0.87070540
0.87034933
0.86999378
0.86963875
0.86928426
0.86893029
0.86857687
0.86822398
0.86787165
0.86751986
0.86716863
0.86681795
0.86646784
0.86611829
0.86576931
0.86542091
0.86507308
0.86472584
0.86437918
0.86403311
0.86368764
0.86334277
0.86299849
0.86265483
0.86231177
0.86196933
0.86162750
0.86128630
0.86094572
0.86060577
0.86026646
0.85992779
0.85958975
0.85925237
0.85891563
0.85857954
0.85824411
0.85790935
0.85757525
0.85724182
0.85690906
0.85657698
0.85624558
0.85591486
0.85558483
0.85525550
0.85492686
0.85459892
0.85427169
0.85394516
0.85361935
0.85329425
0.85296987
0.85264621
0.85232328
0.85200109
0.85167962
0.85135890
0.85103892
0.85071968
0.85040120
0.85008347
0.84976649
0.84945028
0.84913483
0.84882015
0.84850625
0.84819312
0.84788077
0.84756921
0.84725843
0.84694845
0.84663926
0.84633087
0.84602328
0.84571650
0.84541053
0.84510537
0.84480104
0.84449752
0.84419483
0.84389296
0.84359193
0.84329174
0.84299239
0.84269388
0.84239621
0.84209940
0.84180345
0.84150835
0.84121411
0.84092074
0.84062824
0.84033661
0.84004586
0.83975599
0.83946700
0.83917890
0.83889169
0.83860538
0.83831997
0.83803545
0.83775185
0.83746915
0.83718736
0.83690650
0.83662655
0.83634752
0.83606943
0.83579226
0.83551603
0.83524074
0.83496638
0.83469298
0.83442052
0.83414901
0.83387846
0.83360887
0.83334024
0.83307258
0.83280589
0.83254017
0.83227543
0.83201167
0.83174890
0.83148711
0.83122631
0.83096651
0.83070770
0.83044990
0.83019310
0.82993731
0.82968253
0.82942877
0.82917602
0.82892430
0.82867361
0.82842394
0.82817531
0.82792771
0.82768115
0.82743564
0.82719117
0.82694775
0.82670539
0.82646408
0.82622383
0.82598465
0.82574653
0.82550949
0.82527351
0.82503862
0.82480480
0.82457207
0.82434043
0.82410988
0.82388042
0.82365206
0.82342480
0.82319864
0.82297359
0.82274966
0.82252683
0.82230513
0.82208454
0.82186508
0.82164675
0.82142955
0.82121348
0.82099855
0.82078476
0.82057212
0.82036062
0.82015028
0.81994108
0.81973305
0.81952618
0.81932047
0.81911592
0.81891255
0.81871035
0.81850933
0.81830949
0.81811083
0.81791336
0.81771708
0.81752200
0.81732811
0.81713542
0.81694393
0.81675365
0.81656458
0.81637672
0.81619008
0.81600465
0.81582045
0.81563748
0.81545573
0.81527522
0.81509594
0.81491789
0.81474110
0.81456554
0.81439123
0.81421818
0.81404638
0.81387583
0.81370655
0.81353853
0.81337178
0.81320629
0.81304208
0.81287915
0.81271750
0.81255713
0.81239804
0.81224024
0.81208374
0.81192853
0.81177462
0.81162201
0.81147070
0.81132070
0.81117201
0.81102464
0.81087858
0.81073384
0.81059043
0.81044834
0.81030758
0.81016815
0.81003006
0.80989331
0.80975790
0.80962383
0.80949111
0.80935974
0.80922972
0.80910106
0.80897376
0.80884782
0.80872325
0.80860004
0.80847821
0.80835775
0.80823867
0.80812097
0.80800466
0.80788973
0.80777619
0.80766404
0.80755329
0.80744394
0.80733599
0.80722944
0.80712430
0.80702057
0.80691826
0.80681736
0.80671788
0.80661982
0.80652319
0.80642799
0.80633421
0.80624188
0.80615097
0.80606151
0.80597349
0.80588692
0.80580180
0.80571812
0.80563591
0.80555515
0.80547585
0.80539801
0.80532164
0.80524673
0.80517330
0.80510135
0.80503087
0.80496187
0.80489436
0.80482833
0.80476379
0.80470074
0.80463919
0.80457914
0.80452058
0.80446353
0.80440798
0.80435395
0.80430142
0.80425041
0.80420092
0.80415295
0.80410650
0.80406158
0.80401819
0.80397632
0.80393599
0.80389720
0.80385995
0.80382424
0.80379008
0.80375747
0.80372640
0.80369689
0.80366894
0.80364254
0.80361771
0.80359444
0.80357275
0.80355262
0.80353406
0.80351708
0.80350168
0.80348786
0.80347562
0.80346497
0.80345591
0.80344845
0.80344257
0.80343830
0.80343563
0.80343455
0.80343509
0.80343723
0.80344099
0.80344635
0.80345334
0.80346194
0.80347217
0.80348402
0.80349750
0.80351261
0.80352935
0.80354772
0.80356774
0.80358939
0.80361269
0.80363764
0.80366423
0.80369247
0.80372237
0.80375392
0.80378714
0.80382201
0.80385855
0.80389676
0.80393664
0.80397819
0.80402141
0.80406631
0.80411289
0.80416116
0.80421110
0.80426274
0.80431607
0.80437109
0.80442781
0.80448622
0.80454634
0.80460815
0.80467168
0.80473691
0.80480386
0.80487251
0.80494289
0.80501498
0.80508880
0.80516433
0.80524160
0.80532059
0.80540132
0.80548377
0.80556797
0.80565390
0.80574158
0.80583100
0.80592216
0.80601508
0.80610975
0.80620617
0.80630435
0.80640428
0.80650598
0.80660944
0.80671467
0.80682167
0.80693044
0.80704098
0.80715330
0.80726740
0.80738328
0.80750095
0.80762040
0.80774164
0.80786467
0.80798949
0.80811611
0.80824453
0.80837475
0.80850677
0.80864060
0.80877624
0.80891369
0.80905295
0.80919403
0.80933692
0.80948164
0.80962817
0.80977654
0.80992673
0.81007875
0.81023260
0.81038829
0.81054582
0.81070518
0.81086639
0.81102944
0.81119434
0.81136108
0.81152968
0.81170013
0.81187244
0.81204661
0.81222264
0.81240053
0.81258029
0.81276191
0.81294540
0.81313077
0.81331801
0.81350713
0.81369813
0.81389101
0.81408578
0.81428243
0.81448097
0.81468140
0.81488373
0.81508795
0.81529407
0.81550209
0.81571201
0.81592384
0.81613758
0.81635322
0.81657078
0.81679025
0.81701163
0.81723494
0.81746017
0.81768732
0.81791639
0.81814740
0.81838033
0.81861519
0.81885199
0.81909073
0.81933141
0.81957402
0.81981858
0.82006509
0.82031354
0.82056395
0.82081631
0.82107062
0.82132689
0.82158511
0.82184530
0.82210746
0.82237157
0.82263766
0.82290572
0.82317574
0.82344775
0.82372173
0.82399769
0.82427563
0.82455555
0.82483746
0.82512135
0.82540724
0.82569512
0.82598499
0.82627686
0.82657072
0.82686659
0.82716446
0.82746434
0.82776622
0.82807011
0.82837601
0.82868393
0.82899386
0.82930581
0.82961978
0.82993577
0.83025378
0.83057383
0.83089590
0.83122000
0.83154613
0.83187430
0.83220450
0.83253675
0.83287103
0.83320736
0.83354573
0.83388615
0.83422862
0.83457314
0.83491972
0.83526835
0.83561904
0.83597179
0.83632660
0.83668347
0.83704241
0.83740342
0.83776649
0.83813164
0.83849887
0.83886817
0.83923955
0.83961301
0.83998855
0.84036617
0.84074589
0.84112769
0.84151158
0.84189756
0.84228564
0.84267582
0.84306809
0.84346246
0.84385894
0.84425752
0.84465821
0.84506100
0.84546591
0.84587293
0.84628207
0.84669332
0.84710669
0.84752218
0.84793979
0.84835953
0.84878139
0.84920538
0.84963150
0.85005976
0.85049015
0.85092267
0.85135734
0.85179414
0.85223309
0.85267418
0.85311741
0.85356280
0.85401033
0.85446002
0.85491186
0.85536586
0.85582201
0.85628032
0.85674080
0.85720343
0.85766824
0.85813521
0.85860435
0.85907566
0.85954914
0.86002480
0.86050264
0.86098265
0.86146485
0.86194923
0.86243579
0.86292454
0.86341547
0.86390860
0.86440392
0.86490143
0.86540114
0.86590304
0.86640715
0.86691345
0.86742196
0.86793268
0.86844560
0.86896073
0.86947807
0.86999762
0.87051939
0.87104337
0.87156957
0.87209799
0.87262863
0.87316150
0.87369659
0.87423390
0.87477345
0.87531523
0.87585924
0.87640548
0.87695396
0.87750468
0.87805764
0.87861284
0.87917028
0.87972997
0.88029190
0.88085608
0.88142252
0.88199120
0.88256214
0.88313534
0.88371079
0.88428851
0.88486848
0.88545072
0.88603522
0.88662199
0.88721103
0.88780233
0.88839591
0.88899176
0.88958989
0.89019029
0.89079298
0.89139794
0.89200519
0.89261472
0.89322653
0.89384063
0.89445703
0.89507571
0.89569668
0.89631995
0.89694552
0.89757338
