corrn_curve_linear
1.09143183
1.09126547
1.09109914
1.09093284
1.09076659
1.09060036
1.09043418
1.09026802
1.09010190
1.08993582
1.08976977
1.08960376
1.08943778
1.08927184
1.08910593
1.08894006
1.08877422
1.08860842
1.08844265
1.08827692
1.08811122
1.08794556
1.08777993
1.08761434
1.08744878
1.08728326
1.08711777
1.08695232
1.08678690
1.08662152
1.08645617
1.08629085
1.08612557
1.08596033
1.08579512
1.08562995
1.08546481
1.08529970
1.08513463
1.08496959
1.08480459
1.08463963
1.08447470
1.08430980
1.08414494
1.08398011
1.08381532
1.08365056
1.08348583
1.08332115
1.08315649
1.08299187
1.08282729
1.08266274
1.08249822
1.08233374
1.08216929
1.08200488
1.08184050
1.08167616
1.08151185
1.08134757
1.08118333
1.08101913
1.08085496
1.08069082
1.08052672
1.08036265
1.08019862
1.08003462
1.07987066
1.07970673
1.07954283
1.07937897
1.07921514
1.07905135
1.07888759
1.07872387
1.07856018
1.07839653
1.07823290
1.07806932
1.07790577
1.07774225
1.07757876
1.07741532
1.07725190
1.07708852
1.07692517
1.07676186
1.07659858
1.07643534
1.07627213
1.07610895
1.07594581
1.07578270
1.07561963
1.07545659
1.07529358
1.07513061
1.07496768
1.07480477
1.07464191
1.07447907
1.07431627
1.07415350
1.07399077
1.07382807
1.07366541
1.07350278
1.07334018
1.07317762
1.07301509
1.07285259
1.07269013
1.07252771
1.07236531
1.07220295
1.07204063
1.07187834
1.07171608
1.07155386
1.07139167
1.07122951
1.07106739
1.07090530
1.07074325
1.07058123
1.07041924
1.07025729
1.07009537
1.06993348
1.06977163
1.06960981
1.06944803
1.06928628
1.06912456
1.06896288
1.06880123
1.06863961
1.06847803
1.06831648
1.06815497
1.06799349
1.06783204
1.06767063
1.06750925
1.06734790
1.06718659
1.06702531
1.06686406
1.06670285
1.06654167
1.06638053
1.06621941
1.06605834
1.06589729
1.06573628
1.06557530
1.06541436
1.06525345
1.06509257
1.06493173
1.06477092
1.06461014
1.06444940
1.06428869
1.06412801
1.06396737
1.06380676
1.06364618
1.06348564
1.06332513
1.06316465
1.06300421
1.06284380
1.06268342
1.06252308
1.06236277
1.06220249
1.06204225
1.06188204
1.06172186
1.06156172
1.06140160
1.06124153
1.06108148
1.06092147
1.06076149
1.06060155
1.06044164
1.06028176
1.06012192
1.05996210
1.05980232
1.05964258
1.05948287
1.05932319
1.05916354
1.05900393
1.05884435
1.05868480
1.05852528
1.05836580
1.05820635
1.05804694
1.05788756
1.05772821
1.05756889
1.05740961
1.05725036
1.05709114
1.05693196
1.05677281
1.05661369
1.05645460
1.05629555
1.05613653
1.05597754
1.05581859
1.05565967
1.05550078
1.05534192
1.05518310
1.05502431
1.05486555
1.05470683
1.05454814
1.05438948
1.05423085
1.05407226
1.05391370
1.05375517
1.05359667
1.05343821
1.05327978
1.05312139
1.05296302
1.05280469
1.05264639
1.05248813
1.05232989
1.05217169
1.05201352
1.05185539
1.05169728
1.05153921
1.05138118
1.05122317
1.05106520
1.05090726
1.05074935
1.05059148
1.05043363
1.05027582
1.05011805
1.04996030
1.04980259
1.04964491
1.04948726
1.04932965
1.04917206
1.04901451
1.04885699
1.04869951
1.04854206
1.04838464
1.04822725
1.04806989
1.04791257
1.04775528
1.04759802
1.04744079
1.04728360
1.04712644
1.04696931
1.04681221
1.04665515
1.04649811
1.04634111
1.04618415
1.04602721
1.04587031
1.04571344
1.04555660
1.04539979
1.04524302
1.04508627
1.04492956
1.04477289
1.04461624
1.04445963
1.04430305
1.04414650
1.04398998
1.04383349
1.04367704
1.04352062
1.04336423
1.04320787
1.04305155
1.04289526
1.04273900
1.04258277
1.04242657
1.04227041
1.04211428
1.04195818
1.04180211
1.04164607
1.04149007
1.04133409
1.04117815
1.04102225
1.04086637
1.04071052
1.04055471
1.04039893
1.04024318
1.04008746
1.03993178
1.03977613
1.03962050
1.03946492
1.03930936
1.03915383
1.03899834
1.03884288
1.03868744
1.03853205
1.03837668
1.03822134
1.03806604
1.03791077
1.03775553
1.03760032
1.03744515
1.03729000
1.03713489
1.03697981
1.03682476
1.03666974
1.03651475
1.03635980
1.03620488
1.03604998
1.03589512
1.03574030
1.03558550
1.03543074
1.03527600
1.03512130
1.03496663
1.03481199
1.03465738
1.03450281
1.03434827
1.03419375
1.03403927
1.03388482
1.03373041
1.03357602
1.03342166
1.03326734
1.03311305
1.03295879
1.03280456
1.03265036
1.03249620
1.03234206
1.03218796
1.03203389
1.03187985
1.03172584
1.03157186
1.03141791
1.03126400
1.03111011
1.03095626
1.03080244
1.03064865
1.03049489
1.03034116
1.03018747
1.03003380
1.02988017
1.02972657
1.02957300
1.02941946
1.02926595
1.02911247
1.02895903
1.02880561
1.02865223
1.02849888
1.02834555
1.02819226
1.02803900
1.02788578
1.02773258
1.02757941
1.02742628
1.02727318
1.02712010
1.02696706
1.02681405
1.02666107
1.02650813
1.02635521
1.02620232
1.02604947
1.02589665
1.02574385
1.02559109
1.02543836
1.02528566
1.02513299
1.02498035
1.02482775
1.02467517
1.02452263
1.02437011
1.02421763
1.02406518
1.02391275
1.02376036
1.02360800
1.02345568
1.02330338
1.02315111
1.02299887
1.02284667
1.02269449
1.02254235
1.02239024
1.02223816
1.02208611
1.02193408
1.02178209
1.02163014
1.02147821
1.02132631
1.02117444
1.02102261
1.02087080
1.02071903
1.02056728
1.02041557
1.02026389
1.02011224
1.01996062
1.01980902
1.01965746
1.01950594
1.01935444
1.01920297
1.01905153
1.01890013
1.01874875
1.01859740
1.01844609
1.01829480
1.01814355
1.01799233
1.01784113
1.01768997
1.01753884
1.01738774
1.01723667
1.01708563
1.01693462
1.01678364
1.01663269
1.01648177
1.01633088
1.01618003
1.01602920
1.01587840
1.01572764
1.01557690
1.01542619
1.01527552
1.01512487
1.01497426
1.01482368
1.01467312
1.01452260
1.01437211
1.01422164
1.01407121
1.01392081
1.01377044
1.01362010
1.01346978
1.01331950
1.01316925
1.01301903
1.01286884
1.01271868
1.01256855
1.01241845
1.01226838
1.01211834
1.01196834
1.01181836
1.01166841
1.01151849
1.01136860
1.01121874
1.01106892
1.01091912
1.01076935
1.01061961
1.01046990
1.01032023
1.01017058
1.01002096
1.00987137
1.00972182
1.00957229
1.00942279
1.00927333
1.00912389
1.00897448
1.00882510
1.00867576
1.00852644
1.00837715
1.00822790
1.00807867
1.00792947
1.00778030
1.00763117
1.00748206
1.00733298
1.00718393
1.00703492
1.00688593
1.00673697
1.00658804
1.00643914
1.00629028
1.00614144
1.00599263
1.00584385
1.00569510
1.00554638
1.00539769
1.00524903
1.00510040
1.00495180
1.00480323
1.00465469
1.00450618
1.00435770
1.00420925
1.00406082
1.00391243
1.00376407
1.00361574
1.00346743
1.00331916
1.00317092
1.00302270
1.00287452
1.00272636
1.00257824
1.00243014
1.00228208
1.00213404
1.00198603
1.00183806
1.00169011
1.00154219
1.00139430
1.00124644
1.00109861
1.00095081
1.00080304
1.00065530
1.00050759
1.00035991
1.00021226
1.00006464
0.99991704
0.99976948
0.99962194
0.99947444
0.99932696
0.99917952
0.99903210
0.99888471
0.99873736
0.99859003
0.99844273
0.99829546
0.99814822
0.99800101
0.99785383
0.99770667
0.99755955
0.99741246
0.99726539
0.99711836
0.99697135
0.99682438
0.99667743
0.99653051
0.99638362
0.99623676
0.99608993
0.99594313
0.99579636
0.99564962
0.99550291
0.99535622
0.99520957
0.99506294
0.99491635
0.99476978
0.99462324
0.99447673
0.99433025
0.99418380
0.99403738
0.99389099
0.99374463
0.99359829
0.99345199
0.99330571
0.99315946
0.99301325
0.99286706
0.99272090
0.99257477
0.99242867
0.99228259
0.99213655
0.99199053
0.99184455
0.99169859
0.99155267
0.99140677
0.99126090
0.99111506
0.99096925
0.99082346
0.99067771
0.99053198
0.99038629
0.99024062
0.99009498
0.98994937
0.98980379
0.98965824
0.98951272
0.98936723
0.98922176
0.98907632
0.98893092
0.98878554
0.98864019
0.98849487
0.98834958
0.98820431
0.98805908
0.98791387
0.98776870
0.98762355
0.98747843
0.98733334
0.98718828
0.98704324
0.98689824
0.98675326
0.98660832
0.98646340
0.98631851
0.98617365
0.98602882
0.98588401
0.98573924
0.98559449
0.98544977
0.98530509
0.98516042
0.98501579
0.98487119
0.98472662
0.98458207
0.98443755
0.98429306
0.98414860
0.98400417
0.98385977
0.98371539
0.98357105
0.98342673
0.98328244
0.98313818
0.98299395
0.98284974
0.98270557
0.98256142
0.98241730
0.98227321
0.98212915
0.98198512
0.98184111
0.98169714
0.98155319
0.98140927
0.98126538
0.98112152
0.98097768
0.98083388
0.98069010
0.98054635
0.98040263
0.98025894
0.98011527
0.97997164
0.97982803
0.97968445
0.97954090
0.97939738
0.97925388
0.97911042
0.97896698
0.97882357
0.97868019
0.97853684
0.97839351
0.97825022
0.97810695
0.97796371
0.97782050
0.97767731
0.97753416
0.97739103
0.97724793
0.97710486
0.97696182
0.97681880
0.97667581
0.97653286
0.97638993
0.97624702
0.97610415
0.97596130
0.97581849
0.97567570
0.97553293
0.97539020
0.97524749
0.97510482
0.97496217
0.97481955
0.97467695
0.97453439
0.97439185
0.97424934
0.97410686
0.97396440
0.97382198
0.97367958
0.97353721
0.97339487
0.97325255
0.97311027
0.97296801
0.97282578
0.97268358
0.97254140
0.97239926
0.97225714
0.97211505
0.97197299
0.97183095
0.97168894
0.97154696
0.97140501
0.97126309
0.97112119
0.97097933
0.97083749
0.97069567
0.97055389
0.97041213
0.97027040
0.97012870
0.96998703
0.96984538
0.96970376
0.96956217
0.96942061
0.96927908
0.96913757
0.96899609
0.96885464
0.96871321
0.96857182
0.96843045
0.96828911
0.96814779
0.96800651
0.96786525
0.96772402
0.96758282
0.96744164
0.96730049
0.96715937
0.96701828
0.96687722
0.96673618
0.96659517
0.96645419
0.96631323
0.96617231
0.96603141
0.96589053
0.96574969
0.96560887
0.96546808
0.96532732
0.96518659
0.96504588
0.96490520
0.96476455
0.96462392
0.96448332
0.96434275
0.96420221
0.96406170
0.96392121
0.96378075
0.96364032
0.96349991
0.96335953
0.96321918
0.96307886
0.96293856
0.96279830
0.96265805
0.96251784
0.96237765
0.96223749
0.96209736
0.96195726
0.96181718
0.96167713
0.96153711
0.96139711
0.96125714
0.96111720
0.96097729
0.96083740
0.96069754
0.96055771
0.96041791
0.96027813
0.96013838
0.95999866
0.95985896
0.95971929
0.95957965
0.95944003
0.95930045
0.95916089
0.95902135
0.95888185
0.95874237
0.95860292
0.95846349
0.95832410
0.95818472
0.95804538
0.95790607
0.95776678
0.95762751
0.95748828
0.95734907
0.95720989
0.95707074
0.95693161
0.95679251
0.95665344
0.95651439
0.95637537
0.95623638
0.95609742
0.95595848
0.95581957
0.95568068
0.95554183
0.95540300
0.95526419
0.95512542
0.95498667
0.95484794
0.95470925
0.95457058
0.95443194
0.95429332
0.95415474
0.95401617
0.95387764
0.95373913
0.95360065
0.95346220
0.95332377
0.95318537
0.95304700
0.95290865
0.95277033
0.95263204
0.95249377
0.95235553
0.95221732
0.95207913
0.95194098
0.95180284
0.95166474
0.95152666
0.95138861
0.95125058
0.95111258
0.95097461
0.95083666
0.95069875
0.95056085
0.95042299
0.95028515
0.95014734
0.95000955
0.94987179
0.94973406
0.94959636
0.94945868
0.94932102
0.94918340
0.94904580
0.94890823
0.94877068
0.94863316
0.94849567
0.94835820
0.94822076
0.94808335
0.94794596
0.94780860
0.94767127
0.94753396
0.94739668
0.94725943
0.94712220
0.94698500
0.94684782
0.94671068
0.94657355
0.94643646
0.94629939
0.94616235
0.94602533
0.94588834
0.94575138
0.94561444
0.94547753
0.94534065
0.94520379
0.94506696
0.94493015
0.94479338
0.94465662
0.94451990
0.94438320
0.94424652
0.94410988
0.94397326
0.94383666
0.94370010
0.94356355
0.94342704
0.94329055
0.94315409
0.94301765
0.94288124
0.94274486
0.94260850
0.94247217
0.94233586
0.94219958
0.94206333
0.94192710
0.94179090
0.94165473
0.94151858
0.94138246
0.94124636
0.94111029
0.94097425
0.94083823
0.94070224
0.94056627
0.94043033
0.94029442
0.94015854
0.94002267
0.93988684
0.93975103
0.93961525
0.93947949
0.93934376
0.93920806
0.93907238
0.93893673
0.93880110
0.93866550
0.93852993
0.93839438
0.93825886
0.93812336
0.93798789
0.93785245
0.93771703
0.93758164
0.93744627
0.93731093
0.93717562
0.93704033
0.93690507
0.93676983
0.93663462
0.93649943
0.93636428
0.93622914
0.93609404
0.93595895
0.93582390
0.93568887
0.93555387
0.93541889
0.93528394
0.93514901
0.93501411
0.93487924
0.93474439
0.93460956
0.93447477
0.93434000
0.93420525
0.93407053
0.93393584
0.93380117
0.93366653
0.93353191
0.93339732
0.93326276
0.93312822
0.93299370
0.93285921
0.93272475
0.93259032
0.93245591
0.93232152
0.93218716
0.93205283
0.93191852
0.93178424
0.93164998
0.93151575
0.93138154
0.93124736
0.93111321
0.93097908
0.93084498
0.93071090
0.93057685
0.93044282
0.93030882
0.93017485
0.93004090
0.92990697
0.92977307
0.92963920
0.92950535
0.92937153
0.92923774
0.92910396
0.92897022
0.92883650
0.92870281
0.92856914
0.92843549
0.92830188
0.92816828
0.92803472
0.92790117
0.92776766
0.92763417
0.92750070
0.92736726
0.92723385
0.92710046
0.92696710
0.92683376
0.92670044
0.92656716
0.92643390
0.92630066
0.92616745
0.92603426
0.92590110
0.92576797
0.92563486
0.92550177
0.92536871
0.92523568
0.92510267
0.92496969
0.92483673
0.92470379
0.92457089
0.92443800
0.92430515
0.92417232
0.92403951
0.92390673
0.92377397
0.92364124
0.92350853
0.92337585
0.92324320
0.92311057
0.92297796
0.92284538
0.92271283
0.92258030
0.92244780
0.92231532
0.92218286
0.92205043
0.92191803
0.92178565
0.92165330
0.92152097
0.92138867
0.92125639
0.92112414
0.92099191
0.92085971
0.92072753
0.92059537
0.92046325
0.92033114
0.92019907
0.92006701
0.91993499
0.91980298
0.91967101
0.91953905
0.91940713
0.91927522
0.91914335
0.91901149
0.91887967
0.91874786
0.91861609
0.91848433
0.91835261
0.91822090
0.91808923
0.91795757
0.91782594
0.91769434
0.91756276
0.91743121
0.91729968
0.91716818
0.91703670
0.91690525
0.91677382
0.91664241
0.91651103
0.91637968
0.91624835
0.91611704
0.91598576
0.91585451
0.91572328
0.91559207
0.91546089
0.91532974
0.91519861
0.91506750
0.91493642
0.91480536
0.91467433
0.91454332
0.91441234
0.91428138
0.91415045
0.91401954
0.91388866
0.91375780
0.91362696
0.91349615
0.91336537
0.91323461
0.91310387
0.91297316
0.91284247
0.91271181
0.91258118
0.91245056
0.91231998
0.91218941
0.91205887
0.91192836
0.91179787
0.91166741
0.91153697
0.91140655
0.91127616
0.91114579
0.91101545
0.91088513
0.91075484
0.91062457
0.91049433
0.91036411
0.91023391
0.91010374
0.90997360
0.90984348
0.90971338
0.90958331
0.90945326
0.90932324
0.90919324
0.90906326
0.90893332
0.90880339
0.90867349
0.90854361
0.90841376
0.90828393
0.90815413
0.90802435
0.90789460
0.90776487
0.90763516
0.90750548
0.90737582
0.90724619
0.90711658
0.90698700
0.90685744
0.90672790
0.90659839
0.90646891
0.90633944
0.90621001
0.90608059
0.90595120
0.90582184
0.90569250
0.90556318
0.90543389
0.90530462
0.90517538
0.90504616
0.90491696
0.90478779
0.90465864
0.90452952
0.90440042
0.90427135
0.90414230
0.90401327
0.90388427
0.90375530
0.90362634
0.90349741
0.90336851
0.90323963
0.90311077
0.90298194
0.90285313
0.90272435
0.90259559
0.90246685
0.90233814
0.90220945
0.90208079
0.90195215
0.90182353
0.90169494
0.90156638
0.90143783
0.90130931
0.90118082
0.90105235
0.90092390
0.90079548
0.90066708
0.90053870
0.90041035
0.90028203
0.90015372
0.90002545
0.89989719
0.89976896
0.89964075
0.89951257
0.89938441
0.89925628
0.89912817
0.89900008
0.89887202
0.89874398
0.89861596
0.89848797
0.89836000
0.89823206
0.89810414
0.89797624
0.89784837
0.89772052
0.89759270
0.89746490
0.89733712
0.89720937
0.89708164
0.89695394
0.89682625
0.89669860
0.89657096
0.89644335
0.89631577
0.89618821
0.89606067
0.89593315
0.89580566
0.89567820
0.89555075
0.89542333
0.89529594
0.89516857
0.89504122
0.89491389
0.89478659
0.89465932
0.89453206
0.89440483
0.89427763
0.89415045
0.89402329
0.89389615
0.89376904
0.89364195
0.89351489
0.89338785
0.89326083
0.89313384
0.89300687
0.89287993
0.89275300
0.89262610
0.89249923
0.89237238
0.89224555
0.89211875
0.89199197
0.89186521
0.89173848
0.89161177
0.89148508
0.89135842
0.89123178
0.89110516
0.89097857
0.89085200
0.89072546
0.89059894
0.89047244
0.89034597
0.89021951
0.89009309
0.88996668
0.88984030
0.88971395
0.88958761
0.88946130
0.88933502
0.88920875
0.88908251
0.88895630
0.88883010
0.88870393
0.88857779
0.88845167
0.88832557
0.88819949
0.88807344
0.88794741
0.88782140
0.88769542
0.88756946
0.88744353
0.88731761
0.88719172
0.88706586
0.88694002
0.88681420
0.88668840
0.88656263
0.88643688
0.88631116
0.88618545
0.88605977
0.88593412
0.88580849
0.88568288
0.88555729
0.88543173
0.88530619
0.88518067
0.88505518
0.88492971
0.88480426
0.88467884
0.88455344
0.88442806
0.88430271
0.88417738
0.88405207
0.88392678
0.88380152
0.88367629
0.88355107
0.88342588
0.88330071
0.88317557
0.88305044
0.88292534
0.88280027
0.88267522
0.88255019
0.88242518
0.88230020
0.88217523
0.88205030
0.88192538
0.88180049
0.88167562
0.88155078
0.88142596
0.88130116
0.88117638
0.88105163
0.88092690
0.88080219
0.88067751
0.88055285
0.88042821
0.88030359
0.88017900
0.88005443
0.87992989
0.87980537
0.87968087
0.87955639
0.87943193
0.87930750
0.87918309
0.87905871
0.87893435
0.87881001
0.87868569
0.87856140
0.87843713
0.87831288
0.87818865
0.87806445
0.87794027
0.87781612
0.87769198
0.87756787
0.87744379
0.87731972
0.87719568
0.87707166
0.87694766
0.87682369
0.87669974
0.87657581
0.87645191
0.87632802
0.87620416
0.87608033
0.87595651
0.87583272
0.87570896
0.87558521
0.87546149
0.87533779
0.87521411
0.87509045
0.87496682
0.87484321
0.87471963
0.87459606
0.87447252
0.87434900
0.87422551
0.87410204
0.87397859
0.87385516
0.87373175
0.87360837
0.87348501
0.87336167
0.87323836
0.87311507
0.87299180
0.87286855
0.87274533
0.87262213
0.87249895
0.87237579
0.87225266
0.87212955
0.87200646
0.87188340
0.87176035
0.87163733
0.87151434
0.87139136
0.87126841
0.87114548
0.87102257
0.87089968
0.87077682
0.87065398
0.87053116
0.87040837
0.87028560
0.87016285
0.87004012
0.86991741
0.86979473
0.86967207
0.86954943
0.86942682
0.86930423
0.86918166
0.86905911
0.86893658
0.86881408
0.86869160
0.86856914
0.86844670
0.86832429
0.86820190
0.86807953
0.86795719
0.86783486
0.86771256
0.86759028
0.86746802
0.86734579
0.86722358
0.86710139
0.86697922
0.86685708
0.86673495
0.86661285
0.86649077
0.86636872
0.86624669
0.86612467
0.86600269
0.86588072
0.86575878
0.86563685
0.86551495
0.86539308
0.86527122
0.86514939
0.86502758
0.86490579
0.86478402
0.86466228
0.86454056
0.86441886
0.86429718
0.86417552
0.86405389
0.86393228
